Subject_id,Computer_name,Block_type,Date,Session_id,Match_start,Match_end,Total_damage_deal,Gun_damage_deal,Rocket_damage_deal,Total_damage_taken,Gun_damage_taken,Rocket_damage_taken,Total_engage,Gun_engage,Rocket_engage,Total_shot_all,Gun_shot_all,Rocket_shot_all,Total_shot_hit,Gun_shot_hit,Rocket_shot_hit,Damager_per_Second_all,Shot_per_Second_all,Damager_per_Second_Hit_only,Shot_per_Second_Hit_only,Gun_kill,Rocket_kill,Total_kill,Death_by_gun,Death_by_rocket,Total_Death,Self_kill,Total_key_pressed,W_key,A_key,S_key,D_key,R_key,Q_key,MouseScrollDown,MouseScrollUp,SpaceBar,LeftMouseButton,RightMouseButton,Tab_key,Percent_of_Null_in_Pupil,Percent_of_Null_in_Gaze,Pupil_Average_mean,Pupil_Average_std,Pupil_Average_min,Pupil_Average_25th,Pupil_Average_50th,Pupil_Average_75th,Pupil_Average_max,Pupil_difference_mean,Pupil_difference_std,Pupil_difference_min,Pupil_difference_25th,Pupil_difference_50th,Pupil_difference_75th,Pupil_difference_max,Gaze_velocity_mean,Gaze_velocity_std,Gaze_velocity_min,Gaze_velocity_25th,Gaze_velocity_50th,Gaze_velocity_75th,Gaze_velocity_max,Heart_rate_min,Heart_rate_mean,Heart_rate_max,Heart_rate_variability,ECG_signal_to_noise
BVCX,mammal_panda,baseline,,,,,,,,,,,,,,,,,,,,,,,,,,,,,,,,,,,,,,,,,,,,0.07844922605070206,0.09656395265251354,2.9941265489780964,0.23963514257955715,1.24755859375,2.8315963745117188,2.9755592346191406,3.145214080810547,3.9269866943359375,0.11801118052662951,0.08243139334375867,1.52587890625e-05,0.06388473510742199,0.10833740234375022,0.15309524536132812,1.101898193359375,0.575337415413104,0.9061444338186103,0.003154763562049232,0.16208027129709687,0.313574031280723,0.6423118711053927,28.81030367832778,57.25190308285659,61.93569615887119,67.87329833471107,23.525739471701183,10.267628060117385
BVCX,mammal_panda,block_01,2024-04-16,1263e8ef-4b1f-9a88-a07b-85971cac44ab,2024-04-16 10:57:55.237102-04:00,2024-04-16 11:08:10.982526-04:00,210.0,210.0,0.0,729.1928015999999,615.0,114.1928016,17.0,17.0,0.0,141.0,141.0,0.0,14.0,14.0,0.0,3.4348610928532053,0.228990739523547,0.3410500375882615,0.022736669172550766,2.0,0.0,2.0,10.0,1.0,11.0,0.0,473.0,128.0,143.0,5.0,84.0,2.0,0.0,0.0,0.0,41.0,61.0,4.0,0.0,0.08976088748969342,0.09886815081328236,3.9425433015874805,0.34116217750614003,1.7532958984375,3.7139530181884766,3.9268951416015625,4.16926383972168,5.701934814453125,0.2366631458485354,0.07981548532549977,4.57763671875e-05,0.18908691406250044,0.2338409423828125,0.2777862548828125,1.881927490234375,0.6455412774724479,1.4849614711245862,0.0009292355492524494,0.1475543033819378,0.25542489428791637,0.44607926774797335,46.69881707499192,20.215635488801915,69.1061838574475,124.9999329448106,75.4134296433375,10.196421796428004
BVCX,mammal_panda,block_02,2024-04-16,6ee85647-4297-186c-24fa-c4970441459c,2024-04-16 11:12:32.018475-04:00,2024-04-16 11:22:47.387228-04:00,450.0,450.0,0.0,1583.916572,1020.0,563.916572,18.0,18.0,0.0,99.0,99.0,0.0,30.0,30.0,0.0,2.4131872032182953,0.1608791468812197,0.7312688494600895,0.04875125663067264,3.0,0.0,3.0,16.0,5.0,21.0,0.0,450.0,105.0,72.0,2.0,114.0,0.0,0.0,0.0,0.0,38.0,64.0,51.0,0.0,0.17851036008851337,0.2074280828807081,3.8661378228976386,0.3688546663256353,1.6998291015625,3.61279296875,3.847343444824219,4.119331359863281,4.987884521484375,0.2256333923975281,0.08170304152109797,9.1552734375e-05,0.1770477294921875,0.2253265380859375,0.2709197998046875,2.24603271484375,0.6463481952549953,1.6423411621583903,0.0008475267152888365,0.14030398118897094,0.23839027113639996,0.4156950397572904,68.15439390256296,57.47126930271466,67.61706491568633,96.15387172389288,78.94275081570724,10.217654085886958
BVCX,mammal_panda,block_03,2024-04-16,b8103d26-48b2-edb7-9cf6-febff2e0b27b,2024-04-16 11:27:04.499339-04:00,2024-04-16 11:37:19.733358-04:00,525.0,525.0,0.0,1035.726212,870.0,165.726212,29.0,29.0,0.0,173.0,173.0,0.0,35.0,35.0,0.0,4.217907202559942,0.28119381350399614,0.8533338271075027,0.05688892180716684,2.0,0.0,2.0,15.0,1.0,16.0,0.0,460.0,81.0,112.0,5.0,78.0,1.0,4.0,0.0,0.0,39.0,87.0,51.0,0.0,0.05089618278629103,0.057995650326225535,3.852902533061736,0.3956461492747752,2.4337921142578125,3.5617942810058594,3.8195037841796875,4.112056732177734,5.149444580078125,0.2167018474757128,0.0705130873373907,4.577636718838818e-05,0.17311096191406294,0.21472167968750044,0.26138305664062456,1.2991485595703125,0.6135834676252994,1.6324640309235297,0.00044691227574213745,0.14212638135777578,0.23804572810512983,0.40662355233550684,100.16709911011372,57.25190308285659,66.44092738505016,77.72019976510214,26.19035807103059,10.4455635769504
BVCX,mammal_panda,block_04,2024-04-16,7dcb719f-46a8-2478-bac5-4da70d64241f,2024-04-16 11:41:35.548627-04:00,2024-04-16 11:51:51.212965-04:00,465.836047,90.0,375.836047,1045.4480523,540.0,505.4480523,13.0,8.0,5.0,60.0,49.0,11.0,11.0,6.0,5.0,2.192780246920847,0.0974557015839368,0.7566396463912126,0.017866878623721744,0.0,4.0,4.0,8.0,5.0,13.0,0.0,453.0,107.0,49.0,0.0,143.0,0.0,34.0,0.0,0.0,40.0,54.0,24.0,0.0,0.061713065289194624,0.06566170809844289,3.7305183741145442,0.37106992972314684,1.6475677490234375,3.4743804931640625,3.6912918090820312,3.9663772583007812,4.8577728271484375,0.21182275148739357,0.06556933186444916,0.00030517578125,0.1727294921875,0.21031188964843683,0.2497558593750001,1.90423583984375,0.6547352695315009,1.6317553729373258,0.0012535775885355413,0.15118013515480277,0.2505327435461537,0.41855301275941426,50.99906301166353,59.76095924063204,67.91491661463442,86.20691379762164,25.185816956359222,10.520248027920715
CVBN,reptile_komodo,baseline,,,,,,,,,,,,,,,,,,,,,,,,,,,,,,,,,,,,,,,,,,,,0.06470642455525855,0.0682551387224629,4.005236776123705,0.20675814537036652,1.5281829833984375,3.872772216796875,3.9799041748046875,4.139350891113281,4.8626708984375,0.07833196382719738,0.07288990362529701,4.57763671875e-05,0.034843444824218306,0.0670928955078125,0.10292053222656272,1.739288330078125,0.46787009543254837,1.4159001270960225,0.0009313488170748926,0.12477304892441478,0.2176167475062859,0.37683807045126044,109.29182648771744,95.54136180991517,115.68406277844774,135.13513339358235,11.73528923010205,6.571523887944331
CVBN,reptile_komodo,block_01,2024-04-09,81378b98-41c5-d358-1442-72be5ced37bb,2024-04-09 15:25:24.122564-04:00,2024-04-09 15:35:39.881001-04:00,585.0,585.0,0.0,249.23286195,150.0,99.23286195,16.0,15.0,1.0,138.0,137.0,1.0,39.0,39.0,0.0,3.4134662778481752,0.22411385976673187,0.9500478837937547,0.06333652558625032,9.0,0.0,9.0,2.0,1.0,3.0,0.0,950.0,169.0,254.0,54.0,318.0,22.0,0.0,4.0,2.0,36.0,37.0,45.0,0.0,0.023452887537993922,0.02460790273556231,4.854909713293459,0.41217239879575435,1.5436859130859375,4.670864105224609,4.919708251953125,5.141973495483398,6.0023651123046875,0.13984852215450844,0.09202114621866699,1.52587890625e-05,0.0651321411132817,0.13128662109375,0.2036285400390625,1.4821929931640625,0.6457649892002147,1.3066054690463544,0.0012827967158135364,0.18025371351427788,0.31462353802978915,0.5459374597910827,42.745535452053225,129.31034854844702,159.55075924510626,174.41867428127858,3.6782648380584084,5.623259789737983
CVBN,reptile_komodo,block_02,2024-04-09,ca5139a6-4482-929d-9f37-54910b13f6a3,2024-04-09 15:41:12.594259-04:00,2024-04-09 15:51:28.226923-04:00,1268.9839378,885.0,383.98393780000004,535.513111,120.0,415.513111,27.0,20.0,7.0,230.0,219.0,11.0,65.0,59.0,6.0,6.385861184747014,0.3735994099234475,2.061268045062664,0.10558244193488733,14.0,4.0,18.0,1.0,5.0,6.0,0.0,965.0,155.0,320.0,38.0,224.0,21.0,0.0,19.0,0.0,52.0,70.0,62.0,0.0,0.038080937376920046,0.03985328869633714,5.01694260459253,0.3813022521999049,1.6453704833984375,4.785804748535156,5.046913146972656,5.271842956542969,6.288017272949219,0.08326895945209346,0.06985461619298125,0.0,0.031524658203125,0.068939208984375,0.117034912109375,1.4547271728515625,0.610661419667245,1.787512387007916,0.001458146662465037,0.17625502595291748,0.30522358027406377,0.517988709226282,239.56053520609555,133.92851383864922,153.52846925328762,168.53935112632703,3.96906098163161,5.7615009805665345
CVBN,reptile_komodo,block_03,2024-04-09,b2c14a1f-48d5-3766-86db-52b27a73b13b,2024-04-09 15:57:50.375414-04:00,2024-04-09 16:08:05.546501-04:00,1280.8975615,660.0,620.8975614999999,658.21688578,150.0,508.21688578,31.0,20.0,11.0,162.0,140.0,22.0,57.0,44.0,13.0,4.9310161083692154,0.26334137514496025,2.0821810201557795,0.0926571505139675,9.0,6.0,15.0,2.0,6.0,8.0,0.0,1008.0,129.0,237.0,47.0,329.0,15.0,0.0,19.0,0.0,73.0,87.0,69.0,0.0,0.030859551407496612,0.03151186712830548,5.083938324398497,0.4062199220809483,2.64263916015625,4.85760498046875,5.120147705078125,5.35504150390625,6.303985595703125,0.07182955352889159,0.05892236898796174,0.0,0.027725219726562944,0.0594329833984375,0.10294342041015625,1.2041015625,0.5844711834588172,1.1935486056915094,0.0017648262716087903,0.17860524892984905,0.3071998525474619,0.5176720771571218,69.02306289946817,130.4347717919746,147.98841265860483,163.04357037206924,4.535738887943587,5.710494778513283
CVBN,reptile_komodo,block_04,2024-04-09,4f300843-434e-188e-ca63-70a6fceb8f72,2024-04-09 16:13:54.698624-04:00,2024-04-09 16:24:09.941301-04:00,1403.93456,525.0,878.9345599999999,463.201236,210.0,253.201236,24.0,11.0,13.0,153.0,127.0,26.0,50.0,35.0,15.0,5.34760795486884,0.2486823585549154,2.2819199845591984,0.08126874462578935,9.0,11.0,20.0,3.0,2.0,5.0,0.0,968.0,136.0,251.0,41.0,242.0,20.0,0.0,20.0,0.0,126.0,88.0,42.0,0.0,0.04287561224236096,0.051092712761990004,5.342546923885305,0.3549085638012986,2.353424072265625,5.114830017089844,5.361480712890625,5.589717864990234,6.344581604003906,0.09112385759246766,0.0719586421067281,0.0,0.0359039306640625,0.07562255859375,0.1303253173828134,0.9404449462890625,0.63117584218,1.268083298891012,0.002026685803893783,0.18876638301708515,0.3202581713967302,0.5389783572914109,27.078134239158167,122.95084081648606,141.72177758380758,157.8947883563857,5.780730424672332,5.8051701891171446
DFGH,reptile_gila,baseline,,,,,,,,,,,,,,,,,,,,,,,,,,,,,,,,,,,,,,,,,,,,0.039171442754636944,0.039532469876799495,3.917873459685121,0.4173979468538523,1.653228759765625,3.6272430419921875,3.863128662109375,4.195671081542969,5.3978729248046875,0.07409326280892102,0.0706078453773877,1.525878906205591e-05,0.03112030029296875,0.062438964843749556,0.10032653808593772,2.1155242919921875,0.4924994545535027,1.2863009631589424,0.0011833418536315217,0.13006406509795498,0.2236025910968055,0.3775369949006182,53.151630160390994,71.77033787564474,86.31722513584346,100.67114834957127,26.738595205532885,5.408979083949836
DFGH,reptile_gila,block_01,2024-04-09,81378b98-41c5-d358-1442-72be5ced37bb,2024-04-09 15:25:24.122564-04:00,2024-04-09 15:35:39.881001-04:00,180.0,180.0,0.0,277.77572,135.0,142.77571999999998,7.0,7.0,0.0,66.0,66.0,0.0,12.0,12.0,0.0,1.6077733418048157,0.10718488945365438,0.29232242578269374,0.01948816171884625,3.0,0.0,3.0,1.0,2.0,3.0,0.0,628.0,124.0,143.0,64.0,155.0,2.0,4.0,0.0,0.0,23.0,63.0,14.0,0.0,0.04896804426940526,0.05060072785283414,5.129340370804723,0.37561684087416236,1.88165283203125,4.957090377807617,5.192924499511719,5.387554168701172,6.914352416992188,0.30804264080043864,0.11544258714556531,0.0,0.24100494384765536,0.311737060546875,0.3820571899414058,1.5914306640625,0.9185208378500245,51.70556513192346,0.0018104394018263257,0.1650032523400114,0.28192299735671644,0.4823114692032398,10006.123400876255,86.70515355939445,115.72931350722035,142.85727909646084,14.73338290092744,5.470702857830762
DFGH,reptile_gila,block_02,2024-04-09,ca5139a6-4482-929d-9f37-54910b13f6a3,2024-04-09 15:41:12.594259-04:00,2024-04-09 15:51:28.226923-04:00,795.0,795.0,0.0,367.562972,240.0,127.562972,21.0,21.0,0.0,165.0,165.0,0.0,53.0,53.0,0.0,4.020254519828402,0.2680169679885602,1.291354482126699,0.0860902988084466,10.0,0.0,10.0,3.0,2.0,5.0,0.0,649.0,110.0,143.0,52.0,98.0,0.0,6.0,0.0,0.0,19.0,166.0,48.0,1.0,0.11368005792614416,0.1636663254350703,5.089235144738384,0.34280353234286715,2.1291656494140625,4.862724304199219,5.0709228515625,5.32830810546875,6.966705322265625,0.317649845279925,0.10658225454970234,4.57763671875e-05,0.25119781494140625,0.3226165771484384,0.3889846801757808,2.0428924560546875,0.5768239511136299,1.8943915537471698,0.0012241284897648102,0.16880375987814655,0.28579319189663793,0.48117491247498,219.15555050844586,87.71926571287652,117.57725841783106,142.8571980015974,14.662989509745517,5.582298005097178
DFGH,reptile_gila,block_03,2024-04-09,b2c14a1f-48d5-3766-86db-52b27a73b13b,2024-04-09 15:57:50.375414-04:00,2024-04-09 16:08:05.546501-04:00,789.199147,300.0,489.199147,479.776484,195.0,284.776484,16.0,6.0,10.0,56.0,41.0,15.0,27.0,20.0,7.0,2.5324782193477824,0.0910315864698628,1.2828937570012942,0.04389022919082671,4.0,5.0,9.0,2.0,4.0,6.0,0.0,476.0,105.0,92.0,38.0,101.0,2.0,0.0,7.0,1.0,23.0,77.0,29.0,0.0,0.062386290996705514,0.06544721443674091,4.913514149382023,0.3914599305480988,1.5206298828125,4.7447509765625,4.968223571777344,5.173011779785156,6.50714111328125,0.33091206420728275,0.10393751590277507,0.0001220703125,0.2676544189453125,0.3347625732421875,0.3970680236816406,1.6378326416015625,0.6389873171049669,8.907502460208077,0.0012649297239200816,0.15521416130182364,0.26874377178289777,0.4592143323216833,1693.5929862353112,88.75741222685461,119.20109068836042,147.05891221457685,12.46641296754472,5.579705952567171
DFGH,reptile_gila,block_04,2024-04-09,4f300843-434e-188e-ca63-70a6fceb8f72,2024-04-09 16:13:54.698624-04:00,2024-04-09 16:24:09.941301-04:00,1142.063419,645.0,497.063419,444.755671,150.0,294.755671,20.0,12.0,8.0,129.0,112.0,17.0,51.0,43.0,8.0,4.1549331939468175,0.20967336113453652,1.8562812069033374,0.08289411951830514,9.0,5.0,14.0,1.0,2.0,3.0,0.0,651.0,104.0,140.0,61.0,112.0,1.0,0.0,11.0,0.0,66.0,127.0,29.0,0.0,0.11354465457727649,0.13221352520783702,5.140435729904785,0.3848471119337272,1.96136474609375,4.893589019775391,5.165596008300781,5.437042236328125,7.03564453125,0.3007101503414498,0.10292451973808593,3.0517578125e-05,0.23615264892578125,0.2990570068359375,0.36525726318359375,1.774688720703125,0.6515531816703998,1.3863850813123406,0.0011683673045115523,0.18521917547270128,0.3153403005054647,0.5250239241936279,30.277763349641475,87.71929628875696,119.04726568307973,147.05882627933775,12.25551972751152,5.535602423024231
DFZX,reptile_gila,baseline,,,,,,,,,,,,,,,,,,,,,,,,,,,,,,,,,,,,,,,,,,,,0.1339940912989612,0.1430477461164586,4.196680877518567,0.3942974908343499,2.044296264648437,3.9556884765625,4.204887390136719,4.435230255126953,5.6234893798828125,0.08550718491843363,0.08767501803163266,0.0,0.030426025390625,0.064666748046875,0.1160736083984375,1.9753417968750004,1.1413060956346013,2.029240188089435,0.004454154113568483,0.3171495863982892,0.5898478784591552,1.1293105907391212,83.88804188683727,83.79887330584639,94.8439112343533,108.69564315997886,16.72046643728625,9.370724367767368
DFZX,reptile_gila,block_01,2024-04-09,9e78a544-4fad-2033-7311-4f8a28b2f34f,2024-04-09 12:45:55.566185-04:00,2024-04-09 12:56:11.552493-04:00,957.2972126,855.0,102.2972126,608.437396,525.0,83.43739599999999,26.0,20.0,6.0,187.0,177.0,10.0,59.0,57.0,2.0,5.31004545737403,0.3035781762863469,1.5540884597064777,0.09578134973740358,11.0,1.0,12.0,7.0,1.0,8.0,0.0,1052.0,107.0,206.0,39.0,310.0,13.0,44.0,1.0,1.0,80.0,117.0,86.0,0.0,0.09534327925840093,0.08903051371185786,5.1635064148985865,0.3398046820164028,2.263778686523437,4.977092742919922,5.180126190185547,5.378742218017578,6.367973327636719,0.09013813497062192,0.09386502285385268,0.0,0.03603363037109375,0.0760345458984375,0.12225341796874956,3.7772979736328125,0.8961176030533207,2.056427190726636,0.003816549080774188,0.2370523627575136,0.408679834302711,0.6990578606786911,68.02361553881383,77.31960910402826,91.61627267548923,106.38295425915248,24.050329797227867,9.40272797956145
DFZX,reptile_gila,block_02,2024-04-09,505ab3c0-4bfb-f248-a0ff-53be350d22d6,2024-04-09 13:00:27.405583-04:00,2024-04-09 13:10:42.868378-04:00,1433.43423,1170.0,263.43423,716.655472,540.0,176.655472,30.0,27.0,3.0,201.0,193.0,8.0,83.0,78.0,5.0,5.331241452214833,0.3265835102185177,2.3290347388098414,0.13485786740366654,18.0,4.0,22.0,7.0,2.0,9.0,0.0,1071.0,133.0,292.0,48.0,204.0,19.0,48.0,0.0,0.0,109.0,117.0,81.0,7.0,0.0680559639321768,0.07649710869352151,5.178507095893707,0.3554433664006432,2.068222045898437,4.9497528076171875,5.185279846191406,5.42266845703125,6.167449951171875,0.08162960987642606,0.0762520138597675,0.0,0.029937744140624778,0.06710052490234375,0.1170501708984375,2.10528564453125,0.7436820105213378,1.7524910466772001,0.0023541594508395846,0.1981103390927701,0.3402865366214833,0.576853353273704,48.586244636089525,75.3768840608794,89.1522325649334,104.16667115081259,28.246422768238368,9.355288932257873
DFZX,reptile_gila,block_03,2024-04-09,e27612de-4620-d131-fe94-1d8df7bf34e9,2024-04-09 13:15:14.374021-04:00,2024-04-09 13:25:29.235641-04:00,1343.5514016,735.0,608.5514016000001,576.8775845,180.0,396.8775845,29.0,16.0,13.0,173.0,149.0,24.0,61.0,49.0,12.0,5.3705746114060595,0.28136412222314344,2.185128096952937,0.09920931477232227,11.0,9.0,20.0,1.0,5.0,6.0,0.0,1080.0,114.0,236.0,31.0,299.0,21.0,76.0,0.0,0.0,134.0,94.0,62.0,5.0,0.03482027063400788,0.034795801013042305,5.129162258721507,0.34059596983593027,1.4744873046875,4.913978576660156,5.121406555175781,5.345325469970703,6.2481689453125,0.10553726677202792,0.0899282294241748,0.0,0.04299926757812589,0.091552734375,0.1508026123046884,2.6349639892578134,0.7947341228625557,1.864470137012893,0.0017401010383839986,0.21167035440757126,0.3649989620428452,0.6245458909477177,45.7602412098352,77.72019976510214,89.76511515541685,102.04084744044602,25.07364080016762,9.346829062546092
DFZX,reptile_gila,block_04,2024-04-09,5d02a094-4bec-a7f8-e7d4-979a9b28ba7c,2024-04-09 13:29:13.404374-04:00,2024-04-09 13:39:30.583512-04:00,1463.518516,765.0,698.5185160000002,939.38321,630.0,309.38320999999996,29.0,21.0,8.0,202.0,181.0,21.0,64.0,51.0,13.0,6.29852092959111,0.327295573623229,2.371302634665529,0.10369760748458741,11.0,8.0,19.0,9.0,3.0,12.0,1.0,890.0,88.0,260.0,13.0,145.0,6.0,51.0,0.0,0.0,153.0,92.0,57.0,22.0,0.17706040596722916,0.16980516833781692,4.924769958990329,0.42596350305692765,1.288482666015625,4.715387344360352,4.967987060546875,5.190443038940431,6.387603759765625,0.11027282348004834,0.10754514345307442,0.0,0.046661376953125,0.09259033203124956,0.1504974365234375,3.314147949218751,0.8462215336717812,1.931764090242951,0.0023762887109399344,0.2044042971454151,0.35888143488417856,0.6600932572347794,44.97647271692198,72.81554443063958,91.78132204624724,115.38461961689801,23.28616969678975,9.265509683925
DKLQ,reptile_komodo,baseline,,,,,,,,,,,,,,,,,,,,,,,,,,,,,,,,,,,,,,,,,,,,0.14501331051530708,0.1266400456360525,2.9609144133047995,0.2815696545850454,1.7098388671875,2.7913436889648438,2.9503822326660156,3.1303558349609375,4.106208801269531,0.09702352046498823,0.06906058705816354,1.52587890625e-05,0.04900360107421853,0.092254638671875,0.134002685546875,2.3011779785156254,0.6223890446658464,11.313289443725656,0.00397179857120859,0.17279030023173836,0.30080246462264654,0.5171093039569485,1499.404323352795,66.07929570941081,78.47476828439844,99.3377724988839,39.58447848176357,6.8496044521872985
DKLQ,reptile_komodo,block_01,2024-03-05,d682ff1b-4c8a-9dae-d9d5-4582be12e778,2024-03-05 13:58:16.141846-05:00,2024-03-05 14:08:31.532598-05:00,445.149234,330.0,115.14923399999999,711.733395,510.0,201.73339500000003,23.0,15.0,8.0,155.0,142.0,13.0,25.0,22.0,3.0,4.346902419326574,0.2518724883275464,0.7233602919011691,0.04062459489153974,3.0,1.0,4.0,7.0,1.0,8.0,0.0,1348.0,216.0,215.0,143.0,240.0,13.0,32.0,0.0,0.0,304.0,144.0,31.0,0.0,0.057029277195789686,0.056454234067555065,4.187202319029053,0.3384934469864451,2.127410888671875,3.9545154571533203,4.200630187988281,4.442235946655273,5.103797912597656,0.05468741632119724,0.048226578136062424,0.0,0.0208740234375,0.044464111328125,0.07647705078124933,1.281219482421875,0.8434738767307972,2.0473921070267695,0.0029377827328160525,0.21501146682428426,0.37807409154710114,0.6511560487882222,136.20006655211296,83.33333002196431,99.61505849593031,116.27911618751907,15.886343617570718,5.636220544933303
DKLQ,reptile_komodo,block_02,2024-03-05,a8c25021-42f3-e12a-9934-d48ca28b88aa,2024-03-05 14:12:58.312074-05:00,2024-03-05 14:23:18.954013-05:00,626.438678,165.0,461.438678,1060.93859,930.0,130.93859,22.0,12.0,10.0,96.0,74.0,22.0,20.0,11.0,9.0,3.774023136067832,0.15467855774406505,1.0093399086264456,0.032224699530013556,1.0,4.0,5.0,11.0,2.0,13.0,0.0,1134.0,129.0,210.0,92.0,144.0,19.0,50.0,0.0,0.0,265.0,142.0,74.0,0.0,0.03153838602002749,0.030286667975652857,4.025146859275788,0.35202684824632463,1.954254150390625,3.796661376953125,4.00445556640625,4.249565124511719,4.983253479003906,0.05574842527586554,0.05155961012537403,0.0,0.0207977294921875,0.043441772460937056,0.07569885253906228,1.6785888671875,0.7688177527376701,1.9005688103946354,0.0007326099324424843,0.20349291731908914,0.3557580135475312,0.6153600834233877,121.54370699427237,72.11538312747284,88.68558823654755,105.63383261332021,28.418800223880535,5.34523884127998
DKLQ,reptile_komodo,block_03,2024-03-05,4ca89552-4100-084d-279e-7db3ac4df894,2024-03-05 14:29:03.133666-05:00,2024-03-05 14:39:18.350255-05:00,993.762283,195.0,798.762283,1036.735014,645.0,391.735014,28.0,19.0,9.0,134.0,108.0,26.0,25.0,13.0,12.0,4.620740566538917,0.2178094713242526,1.6153047573299426,0.04063609539631578,0.0,5.0,5.0,8.0,3.0,11.0,0.0,1406.0,144.0,190.0,90.0,221.0,22.0,72.0,0.0,0.0,327.0,209.0,121.0,0.0,0.029606635419989695,0.0275821452234301,4.009277463070372,0.35117637446426986,1.892333984375,3.780059814453125,4.015342712402344,4.254177093505859,5.0253448486328125,0.05266736953547048,0.04588476763095394,0.0,0.0199127197265625,0.042755126953125,0.07392883300781283,1.114883422851563,0.7492919974445275,1.5712083974002882,0.0013847477293915372,0.22322522075704787,0.38473091971872286,0.6449385543961119,31.54427454207687,73.89162231797462,88.13127479653973,103.4482894697899,25.868439836523137,4.9494731750674505
DKLQ,reptile_komodo,block_04,2024-03-05,f74ac41e-4abb-2c24-95ba-f6bd7a3aa0c5,2024-03-05 14:42:49.125351-05:00,2024-03-05 14:53:04.736432-05:00,557.187302,165.0,392.18730199999993,1100.690293,405.0,695.690293,25.0,13.0,12.0,149.0,122.0,27.0,18.0,11.0,7.0,4.659077396626653,0.24203592917457573,0.905096284321107,0.02923923976605613,1.0,2.0,3.0,5.0,6.0,11.0,0.0,1346.0,121.0,219.0,107.0,142.0,49.0,75.0,1.0,0.0,298.0,221.0,109.0,0.0,0.018972762251923857,0.018301944106925882,4.027280470673092,0.35772147426849427,2.0335235595703125,3.7692108154296875,4.001075744628906,4.277549743652344,5.1444854736328125,0.0687732347303134,0.04824684419571275,0.0,0.0330810546875,0.06285095214843772,0.096466064453125,1.345123291015625,0.8481311704899801,1.9618342587807736,0.0019587090079429123,0.2529250044388833,0.43420919107987416,0.7259731600536409,149.28370437666305,70.09346231704994,82.92961421770221,97.40260735513651,31.453876116550056,5.293263337758293
EDFR,mammal_panda,baseline,,,,,,,,,,,,,,,,,,,,,,,,,,,,,,,,,,,,,,,,,,,,0.04428518926865123,0.04359610437339213,3.965825687262451,0.4068554779498767,1.8038787841796875,3.6950225830078125,3.9991378784179688,4.286218643188477,4.92120361328125,0.22138245751576718,0.07767200780167546,0.00018310546875088818,0.17058944702148438,0.2189559936523433,0.2704544067382817,1.4250335693359375,0.6811564774633613,1.7372592610946,0.001697989441222154,0.1697422772929943,0.3017272698771588,0.5412180248947731,51.59511130307309,76.92305623192375,89.07875009485052,101.35135004518676,17.45136318706806,6.488454516335954
EDFR,mammal_panda,block_01,2024-04-09,81378b98-41c5-d358-1442-72be5ced37bb,2024-04-09 15:25:24.122564-04:00,2024-04-09 15:35:39.881001-04:00,30.90940595,30.0,0.90940595,240.0,240.0,0.0,7.0,7.0,0.0,39.0,38.0,1.0,3.0,2.0,1.0,0.9271645691636703,0.06333652558625032,0.050197291815589046,0.0048720404297115626,0.0,0.0,0.0,4.0,0.0,4.0,0.0,941.0,228.0,219.0,89.0,247.0,10.0,5.0,10.0,1.0,64.0,28.0,23.0,0.0,0.0754236869410544,0.07626364938979198,4.398023123875645,0.3730547090326731,2.0179443359375,4.164440155029297,4.4169921875,4.644817352294922,6.374176025390625,0.23971189501332166,0.08042508616677684,7.62939453125e-05,0.19075012207031228,0.2418518066406241,0.2895889282226558,1.905242919921875,7.383129415098334,1221.2604222669495,0.00036640183822951805,0.1735140896165106,0.32440681936084736,0.6897742922477361,234631.79346153533,73.89162231797462,88.95223602859926,106.38304420130996,44.24599810826693,6.704647178255115
EDFR,mammal_panda,block_02,2024-04-09,ca5139a6-4482-929d-9f37-54910b13f6a3,2024-04-09 15:41:12.594259-04:00,2024-04-09 15:51:28.226923-04:00,344.593351,90.0,254.593351,960.1057777,660.0,300.1057777,14.0,5.0,9.0,43.0,34.0,9.0,10.0,6.0,4.0,1.4430249717873969,0.06984684620307931,0.5597385765093192,0.016243452605367283,1.0,3.0,4.0,9.0,3.0,12.0,1.0,913.0,227.0,180.0,73.0,261.0,12.0,0.0,10.0,1.0,51.0,47.0,51.0,0.0,0.07196793253082939,0.07340214273456079,4.578802890552914,0.341713123475419,1.2471771240234375,4.37457275390625,4.595237731933594,4.815557479858398,5.5312347412109375,0.16781536718920018,0.08690487604096875,0.0,0.10780334472656228,0.1647491455078125,0.2228469848632808,2.1999969482421875,0.9576294435330719,2.6247634619849896,0.0025526171972420093,0.17704733127150432,0.3296238233142344,0.6608308827294616,223.8401478866761,75.00000447034863,87.34476703205596,100.00001589457446,23.905619396203157,6.6970791609981255
EDFR,mammal_panda,block_03,2024-04-09,b2c14a1f-48d5-3766-86db-52b27a73b13b,2024-04-09 15:57:50.375414-04:00,2024-04-09 16:08:05.546501-04:00,587.38060308,75.0,512.38060308,862.0718676,360.0,502.0718676000001,14.0,5.0,9.0,43.0,29.0,14.0,14.0,5.0,9.0,1.8329921901547364,0.0698992538965018,0.9548247885713783,0.0227578966174657,1.0,6.0,7.0,4.0,5.0,9.0,0.0,999.0,226.0,233.0,102.0,246.0,25.0,0.0,10.0,1.0,30.0,56.0,70.0,0.0,0.027491322501131846,0.027063735600382312,4.541800366413856,0.3193404117085548,1.7730865478515625,4.350400924682617,4.544700622558594,4.73664665222168,5.8027191162109375,0.11513211787573871,0.07169759914255819,0.0,0.06100082397460871,0.110504150390625,0.1601753234863279,1.3490142822265625,0.9126009439695445,2.880906858920126,0.00018118855423009112,0.16900716207198047,0.3169765507235889,0.6251362457517295,241.30626729127093,73.52941313966888,89.72418958076982,106.38304420130996,25.008060139775285,6.805098881283903
EDFR,mammal_panda,block_04,2024-04-09,4f300843-434e-188e-ca63-70a6fceb8f72,2024-04-09 16:13:54.698624-04:00,2024-04-09 16:24:09.941301-04:00,219.725411,180.0,39.725411,1047.006415,435.0,612.0064150000001,12.0,7.0,5.0,89.0,80.0,9.0,14.0,12.0,2.0,2.3160223456020104,0.14465836543390503,0.35713616628711214,0.02275524849522102,3.0,0.0,3.0,7.0,7.0,14.0,0.0,987.0,140.0,167.0,35.0,280.0,13.0,0.0,39.0,0.0,146.0,116.0,47.0,0.0,0.04077424836927998,0.03991202859070802,4.723751595901577,0.3372449268216881,2.597518920898437,4.518741607666016,4.743965148925781,4.940948486328125,5.844963073730469,0.10840500039842639,0.07344083063542933,0.0,0.051391601562500444,0.099578857421875,0.15404510498046875,1.292404174804688,0.8914651460279115,2.3792503484360514,0.0008113306286105128,0.17558055909430909,0.3315939573190686,0.6501306393880422,213.07351346413347,73.52941313966888,88.25361791289102,104.16667115081259,23.36225459488678,6.847657772758878
FTLD,reptile_gila,baseline,,,,,,,,,,,,,,,,,,,,,,,,,,,,,,,,,,,,,,,,,,,,0.20261201734462111,0.17835019615940534,3.985041112115543,0.35689554235883136,1.2151641845703125,3.763498306274414,3.960376739501953,4.247159957885742,5.8826904296875,0.10268003864314858,0.14682187143246533,0.0,0.03098297119140636,0.0645751953125,0.11377334594726507,2.1620941162109375,1.1806627535441747,2.359300878837093,0.0026338337791592713,0.29069671248115025,0.5654498045337338,1.148650198848119,52.77645578285833,1.5743073052586198,56.94248805832581,106.3829992302122,5004.055162060271,8.203543757488319
FTLD,reptile_gila,block_01,2024-01-31,9d7674db-4299-49f2-09ce-408ffebe1332,2024-01-31 15:06:02.586030-05:00,2024-01-31 15:16:18.587999-05:00,1222.665414,720.0,502.665414,651.635117,420.0,231.63511699999998,28.0,17.0,11.0,178.0,165.0,13.0,56.0,48.0,8.0,5.146959963694531,0.28896011532067034,1.984840106899074,0.09090880032560415,8.0,7.0,15.0,4.0,1.0,5.0,0.0,1135.0,121.0,237.0,33.0,268.0,46.0,0.0,39.0,4.0,141.0,73.0,85.0,23.0,0.10006056511915022,0.09928020685317618,4.767059290823629,0.38725758740089977,1.7052459716796875,4.543521881103516,4.794963836669922,5.050764083862305,5.6718597412109375,0.07895266146381795,0.07855116075039514,1.5258789061611822e-05,0.0311431884765625,0.0635223388671875,0.10833740234375,2.27020263671875,0.8465316876278015,1.6596585164205695,0.0006217438696830854,0.20020052023405144,0.361021842788875,0.6802938064967583,34.313646998745796,41.43646539835004,88.84042309552915,109.48907929508135,560.3682355761215,8.930705796073292
FTLD,reptile_gila,block_02,2024-01-31,ff9c203a-415a-f596-d37a-289a55618e1a,2024-01-31 15:20:54.914018-05:00,2024-01-31 15:31:10.212231-05:00,1447.2407129,975.0,472.2407129,671.739829,255.0,416.739829,25.0,18.0,7.0,234.0,211.0,23.0,75.0,65.0,10.0,6.820588243606681,0.3803033960704839,2.352096401911702,0.1218921141251551,12.0,2.0,14.0,2.0,1.0,3.0,0.0,1145.0,162.0,286.0,84.0,245.0,48.0,0.0,30.0,6.0,84.0,73.0,89.0,21.0,0.12827257307210108,0.1226922982374198,4.870567024961967,0.4290988062118711,1.304595947265625,4.626121520996094,4.929931640625,5.160614013671875,6.2206878662109375,0.09326427422894969,0.08460754529648692,0.0,0.03952026367187589,0.07913208007812544,0.1280479431152346,2.1599121093750004,0.9649662627965756,1.9243877263413451,0.0007176412424151496,0.20455222311953714,0.3821899639860986,0.7755713060127083,90.30928615729643,43.478257263991544,89.90652745458864,118.11026016728728,679.0212974802431,9.166938596065886
FTLD,reptile_gila,block_03,2024-01-31,da70cd6f-44d0-f518-f635-5fa866148670,2024-01-31 15:35:51.706503-05:00,2024-01-31 15:46:07.790447-05:00,1142.150733,960.0,182.150733,703.615647,465.0,238.615647,32.0,23.0,9.0,179.0,163.0,16.0,69.0,64.0,5.0,5.153912459370959,0.2905448222490927,1.8538881659282456,0.11199772477758324,9.0,1.0,10.0,7.0,2.0,9.0,0.0,1228.0,129.0,294.0,38.0,344.0,40.0,0.0,30.0,2.0,104.0,109.0,90.0,28.0,0.15352090822105563,0.15032713543148257,4.526398269086118,0.41787219099510675,1.157012939453125,4.258598327636719,4.5321502685546875,4.806304931640625,5.557464599609376,0.0913920630329532,0.08007041041576082,0.0,0.040653228759765625,0.07976531982421875,0.12403869628906228,3.1287536621093754,0.8241085036864947,1.996155072704708,0.0010495740911276197,0.17596443065009443,0.3251956036561324,0.6477276632240748,125.53273745936626,42.49291962642576,86.83054626313222,107.14286809065015,482.8225289263696,9.301556279929722
FTLD,reptile_gila,block_04,2024-01-31,f8e91c5d-40a0-bbcd-4b3f-869dc7f8073a,2024-01-31 15:49:42.651635-05:00,2024-01-31 16:00:01.232420-05:00,991.225399,735.0,256.225399,793.9190824,690.0,103.91908240000001,32.0,26.0,6.0,199.0,186.0,13.0,54.0,49.0,5.0,5.5261425086134865,0.3217041408746636,1.602418670343923,0.08729660104136601,7.0,3.0,10.0,8.0,0.0,8.0,0.0,1307.0,164.0,337.0,62.0,248.0,41.0,0.0,22.0,3.0,88.0,161.0,115.0,38.0,0.16448585325751866,0.16384645246740198,4.723508089891468,0.4127280077913692,0.772186279296875,4.488433837890625,4.761177062988281,5.0079345703125,6.170494079589844,0.07147794977675798,0.07532343775551432,0.0,0.0277557373046875,0.05741882324218661,0.09503173828125,2.3599395751953134,0.766424403726553,1.614288044234248,0.0011288494244672406,0.1690227352768287,0.30790544612045584,0.6040444900933876,52.4525945517232,45.8715649173947,87.11013949166053,115.38461961689801,424.67264581811696,8.75549016901299
GHJK,reptile_gila,baseline,,,,,,,,,,,,,,,,,,,,,,,,,,,,,,,,,,,,,,,,,,,,0.23456586332122814,0.24755930764514456,3.022990632533127,0.22192828523767189,1.2643280029296875,2.9201011657714844,3.019287109375,3.1330337524414062,3.972198486328125,0.12604330238114056,0.059018480199850704,9.155273437544409e-05,0.090301513671875,0.1232452392578125,0.15739822387695346,0.885040283203125,1.4935979783609739,37.761880709709075,0.005277740436339396,0.3935103348463941,0.6855656115222192,1.171410093417426,4159.964652076457,76.5305967913853,88.57843200134543,100.00001589457446,33.234146468525985,7.679262346540314
GHJK,reptile_gila,block_01,2024-03-26,,,,,,,,,,,,,,,,,,,,,,,,,,,,,,,,,,,,,,,,,,,0.05493559108221537,0.06229834307755756,3.947423027501252,0.4232735397143262,1.1517791748046875,3.665609359741211,3.8865432739257812,4.14869499206543,5.638511657714844,0.07962674401628353,0.05989966722883712,0.0,0.0359954833984375,0.07049560546875,0.11260223388671853,1.275604248046875,1.0017190533224216,1.8412222239547822,0.004034224155213775,0.31925030882042704,0.547233637812778,0.9195220711897667,33.713920506157784,85.71427987546376,100.35125500846264,114.50383221517734,26.754976544414685,7.906354262068847
GHJK,reptile_gila,block_02,2024-03-26,,,,,,,,,,,,,,,,,,,,,,,,,,,,,,,,,,,,,,,,,,,0.11601183345150486,0.08141610229578738,3.9197980268899815,0.4210474525517803,1.066650390625,3.6410293579101567,3.8642654418945312,4.168365478515625,5.341278076171875,0.06318552658149738,0.058839065062980915,0.0,0.023941040039061834,0.050994873046875,0.08735656738281228,1.50469970703125,0.9839459765697457,1.7573746886703419,0.0009444798306172565,0.31058884072312,0.5395660195240997,0.9334198846621623,42.06737104765978,83.33333002196431,100.82710004822589,116.27911618751907,26.075624925235577,7.761650858222645
GHJK,reptile_gila,block_03,2024-03-26,,,,,,,,,,,,,,,,,,,,,,,,,,,,,,,,,,,,,,,,,,,0.07663418346056604,0.08269716978816367,4.014142135731195,0.48104458539523737,1.5416717529296875,3.7045669555664062,3.9699783325195317,4.260856628417969,6.01953125,0.08544516131915192,0.06478895323275037,0.0,0.041839599609375,0.0784912109375,0.11749267578125,1.3531646728515625,1.0505861334581046,1.9315894909720994,0.002947153151912656,0.3280291137333019,0.5650259111746998,0.9709611099647256,56.31932716761304,75.3768840608794,97.45871550403449,117.18753536116468,34.823476641857006,7.70983127390193
GHJK,reptile_gila,block_04,2024-03-26,,,,,,,,,,,,,,,,,,,,,,,,,,,,,,,,,,,,,,,,,,,0.0943101524730383,0.10521879261187554,3.8802407756838786,0.4718114823605519,1.88671875,3.581279754638672,3.8142547607421875,4.105585098266602,5.7979736328125,0.08717341181727968,0.06580017521332929,0.0,0.04319763183593739,0.0806732177734375,0.11871719360351562,1.800689697265625,0.9919683415481445,1.756378095053161,0.002933369030494501,0.30685517057776807,0.5340865238301065,0.9273853192746464,30.04915846706019,79.36507495993243,96.93663033771912,113.63638990838945,33.15046045390428,7.612196553931897
GTYU,reptile_komodo,baseline,,,,,,,,,,,,,,,,,,,,,,,,,,,,,,,,,,,,,,,,,,,,0.09809006133745574,0.10227896075400189,3.714777261423896,0.5180718195452726,1.51153564453125,3.303934097290039,3.8187217712402344,4.113321304321289,4.784629821777344,0.3546589160713674,0.17114465279993943,0.0016021728515625,0.23433303833007835,0.35385894775390625,0.46263885498046875,2.1787261962890625,0.5828041935726516,1.2849146460093763,0.0014317365146703635,0.15850664880254778,0.2898512111007377,0.5304107924539032,40.63345754164812,142.85703581214673,251.18642514310432,357.1428936355005,80.50018370180344,1.290832149839091
GTYU,reptile_komodo,block_01,2024-01-31,9d7674db-4299-49f2-09ce-408ffebe1332,2024-01-31 15:06:02.586030-05:00,2024-01-31 15:16:18.587999-05:00,415.120176,165.0,250.12017600000001,579.2257316,360.0,219.2257316,13.0,7.0,6.0,52.0,41.0,11.0,16.0,11.0,5.0,1.765213974502734,0.084415314588061,0.6738942355556009,0.025973942950172614,1.0,1.0,2.0,5.0,1.0,6.0,0.0,964.0,172.0,127.0,59.0,170.0,4.0,7.0,41.0,84.0,222.0,36.0,20.0,17.0,0.050895104566091885,0.0518948928462208,4.21220855453777,0.32155773836599655,1.4133148193359375,4.009513854980469,4.2198486328125,4.413993835449219,5.3455352783203125,0.2967854402254426,0.09566038484549089,1.52587890625e-05,0.24110794067382812,0.298126220703125,0.35348129272460926,1.6141510009765634,0.7739067726171469,1.535177232399335,0.00110698872317311,0.20979910549014896,0.3684143621568949,0.6259700351393469,31.62720733789646,128.20508065728106,248.95237872010728,348.8378321058913,75.71846447977045,10.941202110531215
GTYU,reptile_komodo,block_02,2024-01-31,ff9c203a-415a-f596-d37a-289a55618e1a,2024-01-31 15:20:54.914018-05:00,2024-01-31 15:31:10.212231-05:00,766.221684,465.0,301.221684,465.9096124,150.0,315.90961239999996,17.0,11.0,6.0,135.0,124.0,11.0,37.0,31.0,6.0,3.7929102973032682,0.21940580542527918,1.2452850793506205,0.060133442968409855,5.0,1.0,6.0,0.0,1.0,1.0,0.0,999.0,165.0,213.0,60.0,193.0,12.0,0.0,81.0,46.0,134.0,47.0,33.0,13.0,0.035363777477342144,0.040759100696009215,4.401219037363133,0.3652225065396728,1.6954803466796875,4.146759033203125,4.3724517822265625,4.676490783691406,5.4263153076171875,0.23942466785305636,0.11408942499188955,1.52587890625e-05,0.1608581542968759,0.243804931640625,0.31799316406250067,2.2410430908203125,0.7443693412694113,1.499776611885222,0.0016161990666847073,0.20379549313546477,0.35776753091561886,0.6216924547675672,57.22776393759094,55.147055826539976,88.5832795016089,123.96695045375886,1720.9066282683493,9.351132684775123
GTYU,reptile_komodo,block_03,2024-01-31,da70cd6f-44d0-f518-f635-5fa866148670,2024-01-31 15:35:51.706503-05:00,2024-01-31 15:46:07.790447-05:00,857.594909497,435.0,422.59490949699995,452.717952,345.0,107.717952,24.0,16.0,8.0,113.0,99.0,14.0,37.0,29.0,8.0,3.6356341308855797,0.18341656376618704,1.3920098354275567,0.06005675096768956,4.0,1.0,5.0,1.0,0.0,1.0,0.0,1065.0,197.0,227.0,92.0,229.0,17.0,0.0,76.0,49.0,77.0,53.0,35.0,12.0,0.04311208443025884,0.04906460405843021,4.29438189802815,0.34601424496674105,1.021942138671875,4.045692443847656,4.28887939453125,4.531341552734375,5.5777130126953125,0.27922921772187476,0.10971140087918796,9.1552734375e-05,0.20989608764648504,0.2815933227539058,0.3479309082031259,2.026153564453125,0.7107290666782314,1.5505719583771802,0.002060776062202135,0.19319112195908167,0.33937851468668273,0.5854148557030268,113.62374341827201,63.55932164863416,85.85410473055452,111.94034551136804,37.00874906764061,9.51926432208739
GTYU,reptile_komodo,block_04,2024-01-31,f8e91c5d-40a0-bbcd-4b3f-869dc7f8073a,2024-01-31 15:49:42.651635-05:00,2024-01-31 16:00:01.232420-05:00,776.2983389999999,570.0,206.298339,571.5278074,420.0,151.5278074,24.0,19.0,5.0,184.0,173.0,11.0,41.0,38.0,3.0,5.045518251427742,0.2974550850298397,1.2549667849770016,0.06628075264251863,7.0,1.0,8.0,4.0,0.0,4.0,0.0,1122.0,182.0,253.0,88.0,231.0,14.0,0.0,37.0,30.0,78.0,150.0,47.0,12.0,0.0497439734387056,0.05618555495803035,4.295470143161857,0.34119759928338284,1.4682464599609375,4.064245223999023,4.275249481201172,4.515972137451172,5.620361328125,0.24242876327941557,0.11626572779693396,0.0,0.165740966796875,0.24571228027343706,0.3178024291992183,1.8410491943359375,0.6935347090708803,1.4373427600147508,0.0012866256837817582,0.19574390045201034,0.3469215341084377,0.6062881512355897,55.046264560016446,64.93507994765112,84.86454828950873,110.29413582235358,32.88320500627135,9.420878405731036
HGFD,mammal_panda,baseline,,,,,,,,,,,,,,,,,,,,,,,,,,,,,,,,,,,,,,,,,,,,0.3490829346092504,0.37230861244019137,3.077315075855827,0.41215627834473734,1.2980804443359375,2.7933082580566406,3.053497314453125,3.356555938720703,6.118087768554688,0.07425187223872763,0.06466785656668061,3.051757812455591e-05,0.0336456298828125,0.06314086914062456,0.10047912597656294,1.417022705078125,0.5391161393610591,1.3815247612824266,0.0018691715731536734,0.10895711275074317,0.19063791433856345,0.3419460137668351,18.07765253507243,68.80734110508655,76.73752263803328,84.74576933270069,13.928577144935208,11.143496691357711
HGFD,mammal_panda,block_01,2024-04-09,9e78a544-4fad-2033-7311-4f8a28b2f34f,2024-04-09 12:45:55.566185-04:00,2024-04-09 12:56:11.552493-04:00,448.88772259999996,150.0,298.88772259999996,1060.729499,765.0,295.72949900000003,20.0,13.0,7.0,137.0,123.0,14.0,16.0,10.0,6.0,3.7901330452948967,0.22240754091566595,0.7287300330708,0.02597460331861792,0.0,3.0,3.0,12.0,4.0,16.0,0.0,546.0,108.0,128.0,13.0,90.0,0.0,28.0,0.0,0.0,47.0,61.0,68.0,0.0,0.1974609375,0.2213623046875,4.090671026310648,0.34547199123078703,1.8695526123046875,3.9085540771484375,4.086097717285156,4.31103515625,4.973365783691406,0.0685826683396048,0.04725550877443316,0.0,0.031356811523437944,0.061767578125,0.0974349975585942,0.6495819091796879,0.7372413711519592,2.241758160456084,0.0,0.17530729336114467,0.31271226451395584,0.5519531409479387,91.33405029334848,76.14212165881217,87.41989195978246,98.68424272274106,14.490945843343612,11.172688257530766
HGFD,mammal_panda,block_02,2024-04-09,505ab3c0-4bfb-f248-a0ff-53be350d22d6,2024-04-09 13:00:27.405583-04:00,2024-04-09 13:10:42.868378-04:00,490.759699,225.0,265.75969899999996,1146.781038,690.0,456.78103799999997,23.0,17.0,6.0,130.0,117.0,13.0,21.0,15.0,6.0,3.800685472791251,0.21122316581297168,0.7973832098169313,0.034120665246710806,2.0,3.0,5.0,13.0,5.0,18.0,0.0,754.0,130.0,127.0,25.0,127.0,0.0,30.0,0.0,0.0,114.0,121.0,76.0,3.0,0.21497697554729248,0.20254130857691643,4.105504160342009,0.35657270771931177,1.329986572265625,3.8809547424316406,4.103214263916016,4.32940673828125,5.21832275390625,0.1582909616150509,0.06065051160097311,6.103515625e-05,0.11977005004882801,0.1610107421875,0.199859619140625,1.1684722900390616,0.6737357798710889,3.6808537410217603,0.002497911146925594,0.1468216883407528,0.26484019129619824,0.4723236056431648,417.1216411043404,70.75471284339443,82.76074060061949,95.54139808194537,16.141240440799358,11.404981033238053
HGFD,mammal_panda,block_03,2024-04-09,e27612de-4620-d131-fe94-1d8df7bf34e9,2024-04-09 13:15:14.374021-04:00,2024-04-09 13:25:29.235641-04:00,229.40166599999998,75.0,154.40166599999998,1050.89235,705.0,345.89235,20.0,12.0,8.0,104.0,91.0,13.0,7.0,5.0,2.0,3.505192675873963,0.16914374977576255,0.3730947883850678,0.011384675465676326,0.0,2.0,2.0,11.0,4.0,15.0,1.0,887.0,141.0,167.0,27.0,149.0,0.0,33.0,0.0,0.0,113.0,135.0,117.0,0.0,0.4119438169138592,0.43372458501129557,3.830776514179973,0.32304221261680727,1.84552001953125,3.600412368774414,3.802478790283203,4.043598175048828,4.79931640625,0.10691316905124704,0.056275438708807864,0.0,0.06646728515625,0.10287475585937544,0.1426658630371096,1.0172576904296875,0.25720817660337436,0.4180300285662394,0.0,0.10433021811374665,0.1772350727076893,0.2902014038921135,18.73653886585779,28.355388367088455,84.83242987094198,161.29033167743503,72.62587766742128,10.848334500753356
HGFD,mammal_panda,block_04,2024-04-09,5d02a094-4bec-a7f8-e7d4-979a9b28ba7c,2024-04-09 13:29:13.404374-04:00,2024-04-09 13:39:30.583512-04:00,476.264796,90.0,386.264796,1135.403021,525.0,610.403021,21.0,10.0,11.0,136.0,111.0,25.0,11.0,6.0,5.0,4.781923670919674,0.22035741590474825,0.7716799980364858,0.01782302628641346,1.0,4.0,5.0,9.0,5.0,14.0,0.0,727.0,99.0,113.0,19.0,138.0,0.0,29.0,0.0,0.0,104.0,127.0,95.0,0.0,0.286822811484766,0.24686100623408552,3.822609582858723,0.4226750794090899,1.6664581298828125,3.5918197631835938,3.7992095947265625,4.047454833984375,5.822547912597656,0.13418794989798427,0.06281050722315296,1.52587890625e-05,0.090240478515625,0.13648223876953125,0.1774559020996087,0.6894836425781259,0.7256380397949395,2.079664493954223,0.0005144990689798094,0.15791980079847517,0.293882262321421,0.5587896481091276,113.55212188803925,37.22084393669898,86.17735097286464,194.80529010833342,92.4416606405972,9.310207793964839
HJKL,mammal_thylacine,baseline,,,,,,,,,,,,,,,,,,,,,,,,,,,,,,,,,,,,,,,,,,,,0.41989713306029147,0.42251643013620344,3.7684432867385236,0.3189874633253309,1.4872894287109375,3.5570068359375,3.7789688110351562,3.9967536926269536,5.0392608642578125,0.1372501421187695,0.08460295433799302,1.52587890625e-05,0.09032440185546897,0.1331787109375,0.17434692382812478,1.40911865234375,0.4113927837304882,0.9852012824564926,0.0019321828367258546,0.11498630855627558,0.20270544087013997,0.36431682940225485,22.76308997605436,68.80734110508655,80.78415526773514,93.16769413712473,38.15903119809703,9.961150973980816
HJKL,mammal_thylacine,block_01,2024-01-31,9d7674db-4299-49f2-09ce-408ffebe1332,2024-01-31 15:06:02.586030-05:00,2024-01-31 15:16:18.587999-05:00,450.0,450.0,0.0,781.436597,420.0,361.43659700000006,24.0,24.0,0.0,154.0,154.0,0.0,30.0,30.0,0.0,3.7499880134311714,0.24999920089541142,0.7305171454736048,0.04870114303157365,6.0,0.0,6.0,3.0,4.0,7.0,0.0,772.0,142.0,183.0,65.0,148.0,7.0,2.0,0.0,0.0,32.0,107.0,77.0,4.0,0.13818850902184235,0.13765432098765432,3.852710209498819,0.30778074694978574,1.224945068359375,3.6607494354248047,3.8840675354003906,4.057928085327148,5.17877197265625,0.2345243467050524,0.07838438158539589,0.0005950927734375,0.19227600097656228,0.231842041015625,0.26985168457031183,1.43701171875,0.6891103571445493,1.5141181160211772,0.0,0.16341737754806507,0.2837667288884922,0.5105603071839653,37.696741525698364,65.7894779495478,84.3262986078408,104.89509999824938,31.73326036852857,9.468657301953238
HJKL,mammal_thylacine,block_02,2024-01-31,ff9c203a-415a-f596-d37a-289a55618e1a,2024-01-31 15:20:54.914018-05:00,2024-01-31 15:31:10.212231-05:00,370.1096314,315.0,55.109631400000005,1012.7136739,735.0,277.7136739,21.0,17.0,4.0,175.0,170.0,5.0,23.0,21.0,2.0,4.422003144839298,0.28441493295869524,0.6015126057257052,0.03738024833171423,2.0,0.0,2.0,11.0,1.0,12.0,0.0,753.0,132.0,188.0,51.0,183.0,13.0,7.0,0.0,0.0,36.0,64.0,75.0,3.0,0.151336744817503,0.15116704088559343,3.8337132209928613,0.33117398219960636,1.06390380859375,3.6139678955078125,3.834209442138672,4.059022903442383,5.6353607177734375,0.22164836938509666,0.07741455027214622,0.000518798828125,0.17897033691406294,0.2186737060546875,0.2591857910156259,1.6065063476562509,0.6308139487755744,1.5483044710358704,0.0,0.16246854215028317,0.28446972935131404,0.49946023655223837,139.55796219942744,64.93507994765112,83.25916580277818,103.4482894697899,32.7518271598664,9.536858117301932
HJKL,mammal_thylacine,block_03,2024-01-31,da70cd6f-44d0-f518-f635-5fa866148670,2024-01-31 15:35:51.706503-05:00,2024-01-31 15:46:07.790447-05:00,525.0,525.0,0.0,996.1481252,735.0,261.1481252,27.0,26.0,1.0,176.0,174.0,2.0,35.0,35.0,0.0,4.431322844212931,0.28567535595441523,0.8521566015685681,0.05681044010457121,6.0,0.0,6.0,10.0,1.0,11.0,0.0,703.0,127.0,218.0,60.0,135.0,18.0,4.0,0.0,0.0,20.0,53.0,65.0,1.0,0.09136454945475415,0.09111344939735987,3.794482993876675,0.2745789150983212,1.3779449462890625,3.624053955078125,3.8110580444335938,3.973712921142578,4.8191986083984375,0.22178716515929456,0.0673801782546886,0.000701904296875,0.187164306640625,0.2200164794921875,0.25218200683593806,1.819122314453125,0.6956729240850206,1.4676023500153783,0.0011332101630419672,0.17380382011928394,0.3032185795661095,0.5432879089108088,25.542479567941818,65.21736899486649,81.48755294913416,98.68424272274106,35.193421993539744,9.590525185994498
HJKL,mammal_thylacine,block_04,2024-01-31,f8e91c5d-40a0-bbcd-4b3f-869dc7f8073a,2024-01-31 15:49:42.651635-05:00,2024-01-31 16:00:01.232420-05:00,465.0,465.0,0.0,767.916592,570.0,197.916592,18.0,18.0,0.0,138.0,138.0,0.0,31.0,31.0,0.0,3.3463697065856968,0.22309131377237978,0.7517207311895406,0.05011471541263604,3.0,0.0,3.0,5.0,3.0,8.0,0.0,688.0,123.0,153.0,45.0,197.0,10.0,1.0,0.0,0.0,37.0,51.0,69.0,0.0,0.08102955195424213,0.08281391312849845,3.7953848584163787,0.314373240471067,1.388275146484375,3.5762786865234375,3.8133316040039062,4.023977279663086,4.9347686767578125,0.192301871218245,0.07283292094541587,0.00010681152343838818,0.15417861938476596,0.19158935546875022,0.22795104980468817,1.6131134033203134,0.6653998279438299,1.4466688966755894,0.0,0.16656892733105633,0.2899175334317542,0.5102747065360382,26.05642678902586,62.49998199443541,78.5573316704682,96.15387172389288,36.69792098235145,9.65794313521057
HPLX,mammal_thylacine,baseline,,,,,,,,,,,,,,,,,,,,,,,,,,,,,,,,,,,,,,,,,,,,0.1076381047021094,0.10425041781471611,3.038128785971607,0.23217898263739373,1.1728515625,2.8931198120117188,3.0448951721191406,3.181610107421875,4.3795928955078125,0.07819094082800772,0.07094323000421866,1.525878906205591e-05,0.032718658447265625,0.06642913818359353,0.105133056640625,2.1001434326171875,0.7483967805469893,1.4642605563192106,0.0006718682739453986,0.2073153740079532,0.35846411982696014,0.6178715727077626,36.393387684431296,88.23525451873128,98.10872056682004,107.91367017533628,10.542856739733244,5.842833159395418
HPLX,mammal_thylacine,block_01,2024-04-09,81378b98-41c5-d358-1442-72be5ced37bb,2024-04-09 15:25:24.122564-04:00,2024-04-09 15:35:39.881001-04:00,496.099176,255.0,241.09917599999997,525.0,525.0,0.0,12.0,9.0,3.0,62.0,58.0,4.0,20.0,17.0,3.0,1.8349038488286278,0.10068883554737229,0.8056717475395307,0.032480269531410415,3.0,3.0,6.0,8.0,0.0,8.0,0.0,847.0,171.0,192.0,105.0,146.0,2.0,8.0,4.0,2.0,76.0,67.0,52.0,0.0,0.0982468511403978,0.10044740553421193,3.5306350460967715,0.2926521256569459,1.3711700439453125,3.3531646728515625,3.5128021240234375,3.692026138305665,4.767303466796875,0.1401398882709769,0.0705028291423376,3.051757812544409e-05,0.091033935546875,0.135284423828125,0.181427001953125,1.4724273681640625,0.8538976872552329,1.7844928812144736,0.0020934078906423704,0.21253308125900536,0.3693980469448047,0.6415365585251471,56.905312420518705,83.79887330584639,93.7527574272655,103.4482894697899,10.64811542087043,6.02438191110207
HPLX,mammal_thylacine,block_02,2024-04-09,ca5139a6-4482-929d-9f37-54910b13f6a3,2024-04-09 15:41:12.594259-04:00,2024-04-09 15:51:28.226923-04:00,558.482732,270.0,288.482732,1103.8781601,1020.0,83.8781601,17.0,12.0,5.0,83.0,76.0,7.0,23.0,18.0,5.0,2.5385291235943908,0.13482065662454845,0.9071687788158038,0.03735994099234475,3.0,4.0,7.0,15.0,1.0,16.0,0.0,847.0,138.0,134.0,56.0,180.0,4.0,0.0,23.0,6.0,91.0,108.0,78.0,0.0,0.11906220893181038,0.12140300995146822,3.72536248947121,0.3440904855538125,1.6151123046875,3.4986572265625,3.6910934448242188,3.9290904998779297,5.0117645263671875,0.16645241026377217,0.07309871520880845,1.52587890625e-05,0.11957550048828125,0.1634063720703125,0.21167755126953147,1.630859375,0.7980687463042018,1.72804513564178,0.0010740799188766344,0.19544407640501488,0.34356927317078656,0.5996577319405237,47.12330764765218,79.78719883022765,93.49948783160877,107.14286809065015,15.41420747094097,5.923566626728027
HPLX,mammal_thylacine,block_03,2024-04-09,b2c14a1f-48d5-3766-86db-52b27a73b13b,2024-04-09 15:57:50.375414-04:00,2024-04-09 16:08:05.546501-04:00,550.6127667000001,270.0,280.61276669999995,1208.0248409,600.0,608.0248409000001,20.0,14.0,6.0,118.0,106.0,12.0,26.0,18.0,8.0,3.326978097558086,0.19181655720435378,0.8950563157725259,0.042264665146722016,3.0,4.0,7.0,9.0,6.0,15.0,0.0,904.0,105.0,204.0,70.0,138.0,3.0,0.0,30.0,0.0,133.0,149.0,57.0,0.0,0.09994028216676205,0.1084127497573963,3.6766370725750113,0.4136403940521919,1.068328857421875,3.4184951782226562,3.6421585083007812,3.8837623596191406,5.388168334960938,0.13457542170618447,0.07069712005159987,3.0517578125e-05,0.085357666015625,0.131072998046875,0.17962646484375,1.3689117431640625,0.9101024871279041,15.946804632554807,0.001418353610768608,0.19261696037565068,0.33690522492124236,0.5968307733359467,2939.9903372380336,83.79887330584639,95.10551689295191,105.63378827341738,15.794484839940555,5.920289515980564
HPLX,mammal_thylacine,block_04,2024-04-09,4f300843-434e-188e-ca63-70a6fceb8f72,2024-04-09 16:13:54.698624-04:00,2024-04-09 16:24:09.941301-04:00,688.231496,180.0,508.231496,1498.991564,735.0,763.9915640000002,20.0,10.0,10.0,81.0,65.0,16.0,20.0,12.0,8.0,2.940962388488535,0.13165536629377875,1.1186341938369793,0.03250749785031574,1.0,4.0,5.0,11.0,9.0,20.0,0.0,745.0,102.0,81.0,40.0,142.0,0.0,0.0,31.0,1.0,105.0,145.0,50.0,0.0,0.17434406678592726,0.1782448817332538,3.7110511742004872,0.35283056566583676,1.061767578125,3.4832763671875,3.6675376892089844,3.9068126678466797,5.295166015625,0.1463207974760972,0.08447884904309737,1.52587890625e-05,0.09029769897460938,0.13784027099609353,0.19084548950195324,1.8799285888671875,0.7469853367382007,1.7047310467492254,0.001307149541751753,0.17303290369383323,0.3048770141196941,0.5520120636057051,68.30541634416053,81.52173236998414,94.96876718337643,107.91367017533628,15.78755951460654,5.777963252539148
JHGF,mammal_panda,baseline,,,,,,,,,,,,,,,,,,,,,,,,,,,,,,,,,,,,,,,,,,,,0.5554680414339587,0.49548904482314193,4.273672330300869,0.6010802990742156,1.1955413818359375,3.9932937622070312,4.4674835205078125,4.682315826416016,5.6820831298828125,0.21154865737096337,0.2764931233902773,3.051757812544409e-05,0.0534820556640625,0.12200927734375,0.2573394775390625,2.9519500732421884,4.495745057964083,185.11612606886783,0.0,0.4089177472887105,0.880450981575951,2.0468618827522493,17678.689205301675,58.59374039573753,67.34248202179874,78.12501144750833,34.01286636415985,8.583477471034007
JHGF,mammal_panda,block_01,2024-03-06,85a5023a-4976-0721-23b2-028c85a483dd,2024-03-06 13:26:26.617466-05:00,2024-03-06 13:36:42.000566-05:00,211.57244,15.0,196.57244,705.424416,615.0,90.424416,11.0,8.0,3.0,49.0,46.0,3.0,3.0,1.0,2.0,1.455207694198947,0.07962519607704534,0.3438060616224267,0.0048750120047170616,0.0,2.0,2.0,7.0,1.0,8.0,0.0,521.0,158.0,116.0,35.0,87.0,1.0,1.0,9.0,7.0,46.0,57.0,0.0,0.0,0.1377287313524239,0.1456041937143277,4.79616106216831,0.232934669778701,1.8458404541015625,4.671468734741211,4.824577331542969,4.9536285400390625,5.652862548828125,0.07524660045145877,0.09084556511276683,0.0,0.0245819091796875,0.05438232421875,0.097747802734375,2.5611724853515634,1.1243904397762177,4.888289499660028,0.003129221872901824,0.2534815350798602,0.4571677915455818,0.8519656007591432,737.452641627152,78.12501144750833,90.96136645685618,103.4482894697899,17.599932279292165,8.355913377240572
JHGF,mammal_panda,block_02,2024-03-06,32143347-4542-7282-6c5b-b7b56e6a33c5,2024-03-06 13:42:57.110688-05:00,2024-03-06 13:53:13.359943-05:00,30.0,30.0,0.0,1113.5661348,735.0,378.5661348,15.0,12.0,3.0,71.0,67.0,4.0,2.0,2.0,0.0,1.775542152283819,0.11521312102843842,0.04868160043455144,0.0032454400289700963,0.0,0.0,0.0,3.0,0.0,3.0,0.0,717.0,163.0,98.0,45.0,146.0,0.0,0.0,3.0,5.0,120.0,59.0,72.0,0.0,0.16077288101368065,0.165808470897067,4.6883967858838576,0.2462406539362006,1.5035552978515625,4.569896697998047,4.706703186035156,4.846738815307617,6.047119140625,0.07895540546507948,0.08778225658464778,1.52587890625e-05,0.026535034179687944,0.057830810546875,0.1026840209960942,2.5711364746093754,1.063751811277721,2.658550811057946,0.002175901500118265,0.2438003929460635,0.4318866355555542,0.8127225249498061,166.00008345670028,75.75757046668326,90.02943365614499,104.16667115081259,17.927508328515838,8.402472264078792
JHGF,mammal_panda,block_03,2024-03-06,dd256e2a-4e9a-fe7f-54b8-66bfb1d5fa7e,2024-03-06 13:57:21.312206-05:00,2024-03-06 14:07:37.711329-05:00,100.7388733,90.0,10.7388733,1275.4014744,1020.0,255.4014744,15.0,12.0,3.0,107.0,104.0,3.0,8.0,6.0,2.0,2.671307999735749,0.17358882582316718,0.16343124047566174,0.012978603799862966,0.0,0.0,0.0,8.0,0.0,8.0,0.0,834.0,188.0,182.0,29.0,128.0,1.0,0.0,2.0,15.0,100.0,49.0,136.0,0.0,0.0933488031881353,0.1022019320503443,4.651789978472856,0.22730498688844644,0.97540283203125,4.541593551635742,4.674674987792969,4.79362678527832,5.5396728515625,0.07311295612317295,0.07863960889257375,0.0,0.024841308593750888,0.0535888671875,0.09910964965820379,2.3648681640625,0.9547854285029623,13.40415963069273,0.0007802345388725597,0.22019234218534445,0.3860530345707136,0.6840218932282355,2415.2540117825547,80.21391376577412,93.29262435571444,106.3829992302122,16.277897058192583,8.392009845259183
JHGF,mammal_panda,block_04,2024-03-06,0f012d24-4034-4c67-7810-53878af71db6,2024-03-06 14:13:40.557008-05:00,2024-03-06 14:23:56.074452-05:00,309.2559029,120.0,189.2559029,831.20092,690.0,141.20092,18.0,15.0,3.0,88.0,81.0,7.0,12.0,8.0,4.0,2.4442145768008485,0.14296914061139104,0.5024323939387818,0.019495791901553323,1.0,1.0,2.0,4.0,0.0,4.0,0.0,853.0,154.0,118.0,18.0,206.0,0.0,0.0,0.0,20.0,125.0,62.0,149.0,0.0,0.09848124107165233,0.11343074108418336,4.723547743147954,0.23627144406950037,2.0228729248046875,4.591400146484375,4.743110656738281,4.876678466796875,6.472381591796875,0.09085367312220069,0.09319308185672485,1.52587890625e-05,0.0345001220703125,0.07179260253906294,0.11917114257812478,2.444534301757813,0.7882543278307108,1.7730016324924407,0.001222526374461636,0.21434515325016187,0.36873127782868426,0.6412632984319913,54.213886776098136,79.78722412643539,90.59871980588976,102.04080606556266,15.718227589347297,8.4067521324159
JKLZ,reptile_komodo,baseline,,,,,,,,,,,,,,,,,,,,,,,,,,,,,,,,,,,,,,,,,,,,0.0749859958242094,0.0682894535825228,3.726730330462858,0.4089789242442403,1.424163818359375,3.4804744720458984,3.707019805908203,3.9440689086914062,5.1683502197265625,0.06911924843872742,0.0773234884145034,0.0,0.0245513916015625,0.0511322021484375,0.0918426513671875,2.566925048828125,0.5650989847305449,1.5390355863527432,0.00048814238064285215,0.15464693550419614,0.26175093757144846,0.44642269695058623,65.69410273425794,73.89162231797462,88.5442470755644,103.4482894697899,32.102462684318986,5.814819994517821
JKLZ,reptile_komodo,block_01,2024-03-14,,,,,,,,,,,,,,,,,,,,,,,,,,,,,,,,,,,,,,,,,,,0.03562765312310491,0.034465332524762485,4.228647633851104,0.3649244933555811,1.3269805908203125,3.9631195068359375,4.2009124755859375,4.4917144775390625,5.296012878417969,0.06980497118724853,0.07455172176695665,0.0,0.0232696533203125,0.0505828857421875,0.09031677246093661,2.351043701171876,0.8024948903486011,1.6719020068296115,0.0032716174210988655,0.24969076855383743,0.42943045456918727,0.7185450333196755,47.533440822049705,64.93506319253306,87.10827297477545,111.111118960283,42.67172478366025,5.883675416763775
JKLZ,reptile_komodo,block_02,2024-03-14,,,,,,,,,,,,,,,,,,,,,,,,,,,,,,,,,,,,,,,,,,,0.049860819455974995,0.0482736729013039,4.193515099971425,0.3701173742585367,1.50018310546875,3.913970947265625,4.18829345703125,4.468391418457031,5.374038696289063,0.058111701096395324,0.05526556462801519,0.0,0.0213165283203125,0.0456695556640625,0.0813217163085942,1.751998901367188,0.8100225026985483,1.6907400150229472,0.0035722857379440905,0.25453312720246496,0.4414350185975008,0.735272278466207,71.23173946336257,65.2173858959873,84.65196374731391,111.111118960283,42.286103336670855,5.893959007947341
JKLZ,reptile_komodo,block_03,2024-03-14,,,,,,,,,,,,,,,,,,,,,,,,,,,,,,,,,,,,,,,,,,,0.03986384999273221,0.035927128252337806,4.12682563642696,0.3559725161910486,1.32427978515625,3.8984222412109375,4.124259948730469,4.363121032714844,5.349189758300781,0.0625420580477664,0.06111761161061337,0.0,0.022399902343750333,0.048004150390625,0.08470153808593683,1.5080718994140625,0.7514923152021562,1.6027115871722388,0.00105997416028691,0.22973864607185582,0.39856341399219664,0.6768666243428915,56.32864954530839,64.65517427422351,90.65623508190649,120.96778752282042,41.98977185387025,5.962905026813658
JKLZ,reptile_komodo,block_04,2024-03-14,,,,,,,,,,,,,,,,,,,,,,,,,,,,,,,,,,,,,,,,,,,0.030163436328440863,0.026757491852686777,3.97841836147464,0.38118066430576625,1.5194549560546875,3.7021865844726562,3.9764404296875,4.2492828369140625,5.490493774414063,0.05330433412141898,0.05386201145281996,0.0,0.018844604492187056,0.04083251953125,0.07250213623046875,1.5227355957031254,0.7737359185108031,1.9319892929472795,0.000984039042595096,0.23943418731217775,0.4175400787967435,0.7049480050663408,227.15967296716545,65.2173858959873,88.57130785220825,113.63638990838945,35.05507940572344,5.87227298691074
KJHG,reptile_komodo,baseline,,,,,,,,,,,,,,,,,,,,,,,,,,,,,,,,,,,,,,,,,,,,0.1122980853589307,0.10440212623213088,3.197514557309096,0.30005394579093736,1.762420654296875,2.9861621856689453,3.1705703735351562,3.379232406616211,4.317184448242188,0.2157142967989548,0.07986325375848902,0.0007476806640629441,0.16481399536132812,0.203521728515625,0.25428390502929654,1.4921875,0.8080876581132276,1.7193083074866002,0.0031037108229943727,0.2074314150296724,0.36671730037229455,0.6503634330559829,47.37611399903257,88.23528545538119,100.80592487760744,109.4890316596323,9.503416126619113,4.981680293696439
KJHG,reptile_komodo,block_01,2024-04-03,6c8bd420-4c9d-706d-8454-94b39efeea8c,2024-04-03 15:47:26.188356-04:00,2024-04-03 15:57:43.712641-04:00,572.2388,195.0,377.2388,378.984164,330.0,48.984164,15.0,14.0,1.0,72.0,65.0,7.0,17.0,13.0,4.0,2.288291919563941,0.11659460485833363,0.9266660662584306,0.027529281702662108,2.0,3.0,5.0,3.0,1.0,4.0,0.0,986.0,199.0,203.0,55.0,299.0,14.0,6.0,9.0,3.0,43.0,61.0,60.0,0.0,0.10807223152355895,0.12398947620186558,3.329631761790667,0.3692052141895979,1.740478515625,3.069650650024414,3.2514495849609375,3.518941879272461,5.9109954833984375,0.23823193375679574,0.12817328368341965,1.52587890625e-05,0.1474761962890625,0.22970581054687544,0.317047119140625,1.3365478515625,1.2275838269792843,2.5791126000214124,0.0020605000413423985,0.31652917217443344,0.58444504594122,1.1399416634374968,72.38568760964385,98.68416532752344,128.2453910102189,154.63917069663694,6.470878745502062,4.889869233279526
KJHG,reptile_komodo,block_02,2024-04-03,d108dce9-483b-883f-c89d-ccb85c4b4452,2024-04-03 16:04:37.437835-04:00,2024-04-03 16:14:53.087238-04:00,886.57486,570.0,316.57486,809.2289955,660.0,149.2289955,27.0,20.0,7.0,149.0,136.0,13.0,42.0,38.0,4.0,4.350616916971168,0.2420208632931948,1.4400645167197539,0.06822064602895424,6.0,4.0,10.0,10.0,1.0,11.0,0.0,1034.0,195.0,282.0,54.0,179.0,26.0,0.0,19.0,10.0,32.0,98.0,88.0,2.0,0.11443480817286492,0.15941496398647656,3.48287987191001,0.381831813960962,2.129379272460937,3.1881256103515625,3.4158554077148438,3.7268295288085938,4.95770263671875,0.14747899622765098,0.09177031660724363,0.0,0.07940673828125,0.1358184814453125,0.20365905761718706,1.236984252929687,0.9308105010220226,1.7984340343984104,0.0,0.2623066598261641,0.46274856475695497,0.8284466911620396,68.82867695914047,108.69564315997886,133.74281803542104,153.06124012950022,5.242602557225943,4.914592110355164
KJHG,reptile_komodo,block_03,2024-04-03,b6fe0b45-4b33-78f5-6ba6-31bd4383eb57,2024-04-03 16:19:17.222681-04:00,2024-04-03 16:29:32.498722-04:00,929.580116,300.0,629.5801159999999,594.795035,225.0,369.79503500000004,19.0,12.0,7.0,90.0,73.0,17.0,32.0,20.0,12.0,3.1847235821425395,0.14627580793447473,1.5108342500858083,0.052009176154479905,3.0,8.0,11.0,2.0,4.0,6.0,0.0,1003.0,201.0,213.0,50.0,269.0,24.0,0.0,26.0,14.0,49.0,63.0,62.0,11.0,0.051833045844367244,0.05573236801826972,3.3716024872857515,0.37332178314020015,1.7613983154296875,3.094512939453125,3.2984619140625,3.6122512817382812,4.683761596679688,0.1684842072421412,0.09784921402113197,0.0,0.09532546997070312,0.1617584228515625,0.2294311523437499,1.496917724609375,0.9676113549967531,1.7325053465208156,0.0,0.2854370763714843,0.5046228523251775,0.9117080747368725,60.65716200415285,112.78194113930007,128.42126526146487,142.8571980015974,4.9324701041808146,4.893257039706528
KJHG,reptile_komodo,block_04,2024-04-03,f916980f-4c87-8c5d-4e73-9e8eb6e76bc1,2024-04-03 16:33:27.107973-04:00,2024-04-03 16:43:42.882746-04:00,1417.563567,735.0,682.5635670000001,547.1723357,435.0,112.17233569999999,26.0,20.0,6.0,142.0,127.0,15.0,59.0,49.0,10.0,4.460763172576412,0.23060379578102658,2.3020812627541662,0.09581425317662372,10.0,7.0,17.0,6.0,2.0,8.0,0.0,1034.0,166.0,231.0,50.0,214.0,65.0,0.0,39.0,14.0,57.0,88.0,69.0,31.0,0.06560234066912607,0.0766060297672052,3.4613795204961773,0.3825012429497475,1.557769775390625,3.1859073638916016,3.3816375732421875,3.6783161163330083,4.79254150390625,0.15001989608516245,0.08315943374366556,1.525878906294409e-05,0.09013366699218772,0.1437835693359375,0.198883056640625,0.990447998046875,1.0189902914049627,1.9454149270388152,0.004602693723739592,0.28806136417754685,0.5133418102221681,0.9381797387630652,89.94456253287746,111.94029571909667,123.21205451248568,133.92865638805202,5.491434073718739,4.940913824917703
LKJH,mammal_thylacine,baseline,,,,,,,,,,,,,,,,,,,,,,,,,,,,,,,,,,,,,,,,,,,,0.08997964470762398,0.09622501850481126,2.913453485253989,0.2052779715683763,1.48187255859375,2.7731895446777344,2.8976516723632812,3.0251502990722656,3.8349609375,0.05781404488310643,0.06381364096253353,0.0,0.022659301757812167,0.0452880859375,0.07447433471679654,1.76458740234375,0.7399979459046094,1.8847567517156683,0.0008869066153127633,0.15920024390931634,0.28449957143258797,0.5560329536339812,89.96835374386121,1.9460300975153795,38.12787188907337,109.48907929508135,5932.155201161642,8.244567830525058
LKJH,mammal_thylacine,block_01,2024-04-16,1263e8ef-4b1f-9a88-a07b-85971cac44ab,2024-04-16 10:57:55.237102-04:00,2024-04-16 11:08:10.982526-04:00,483.148347,345.0,138.148347,754.624653,705.0,49.624653,19.0,16.0,3.0,76.0,71.0,5.0,25.0,23.0,2.0,2.074101836280963,0.12342763265098988,0.7846560090716972,0.040601194950983514,4.0,1.0,5.0,11.0,0.0,11.0,0.0,787.0,186.0,190.0,46.0,171.0,9.0,26.0,0.0,0.0,23.0,57.0,46.0,0.0,0.1368991634077521,0.10732141973169645,3.836125689144872,0.3040301029880908,1.6728973388671875,3.621522903442383,3.819122314453125,4.040443420410156,4.782638549804688,0.10626769311649285,0.06205317450649836,1.52587890625e-05,0.059597015380859375,0.10247039794921853,0.14905166625976562,1.2783050537109375,0.6826076800592136,1.5220599626651312,0.0008569740845752713,0.18315666681446718,0.3161021800700356,0.530673166121213,43.96279963841568,0.14838996895710377,2.2438433536582423,6.669631085670137,195465.09719949675,8.19861982543385
LKJH,mammal_thylacine,block_02,2024-04-16,6ee85647-4297-186c-24fa-c4970441459c,2024-04-16 11:12:32.018475-04:00,2024-04-16 11:22:47.387228-04:00,543.160992,390.0,153.160992,691.6109309999999,630.0,61.610930999999994,17.0,12.0,5.0,87.0,79.0,8.0,28.0,26.0,2.0,2.4429773248496423,0.14137864422895063,0.8826593637587575,0.04550117285529446,6.0,2.0,8.0,10.0,1.0,11.0,0.0,727.0,179.0,161.0,37.0,173.0,7.0,34.0,0.0,0.0,25.0,51.0,36.0,4.0,0.12348108848194421,0.12452018288061417,3.8830354255931874,0.3639229025001327,1.46417236328125,3.6576919555664062,3.8970947265625,4.137096405029297,4.957000732421875,0.08837672501522949,0.06167245359942869,0.0,0.0388641357421875,0.07952880859375,0.126708984375,1.06561279296875,0.6564606702474474,1.4854870179527593,0.0010329333604016328,0.18031193697418813,0.30606169422217305,0.5240909391941122,49.61891404881731,0.30276118216323206,38.67484933157195,103.4482894697899,47140.761080320146,8.587837328458958
LKJH,mammal_thylacine,block_03,2024-04-16,b8103d26-48b2-edb7-9cf6-febff2e0b27b,2024-04-16 11:27:04.499339-04:00,2024-04-16 11:37:19.733358-04:00,550.120106,405.0,145.120106,1044.7305075,750.0,294.7305075,19.0,16.0,3.0,90.0,84.0,6.0,31.0,27.0,4.0,2.364885429067927,0.14628579893271473,0.8941639912795524,0.05038733074349063,4.0,1.0,5.0,10.0,4.0,14.0,0.0,723.0,154.0,188.0,33.0,141.0,10.0,36.0,0.0,0.0,49.0,52.0,41.0,7.0,0.08673632060432149,0.09047654084811027,3.7478274959392253,0.33180310980496364,1.4466705322265625,3.5365772247314453,3.7470703125,3.9814319610595703,5.031402587890625,0.09675032569080594,0.059375426084807816,0.0,0.051513671875,0.092926025390625,0.13513946533203125,1.7012176513671875,0.6687787312887973,1.4095600311944725,0.0010403861873339599,0.18544850925958561,0.31799966536443475,0.5467083851793967,29.93393327542913,0.1743679163517263,51.352265181723595,115.38461961689801,221061.97967665846,9.050428170530536
LKJH,mammal_thylacine,block_04,2024-04-16,7dcb719f-46a8-2478-bac5-4da70d64241f,2024-04-16 11:41:35.548627-04:00,2024-04-16 11:51:51.212965-04:00,452.183418,345.0,107.183418,946.254479,795.0,151.254479,23.0,17.0,6.0,102.0,94.0,8.0,25.0,23.0,2.0,2.8050016760918832,0.16567469269269255,0.7344642040968759,0.04060654232664033,2.0,1.0,3.0,12.0,3.0,15.0,0.0,786.0,195.0,134.0,29.0,174.0,9.0,41.0,0.0,1.0,72.0,55.0,45.0,17.0,0.08060825274968628,0.07962402499938485,3.65371377636803,0.2972402325274916,1.5229339599609375,3.4486160278320312,3.6381683349609375,3.8407135009765625,5.0251007080078125,0.07850364562584841,0.06098572166896042,0.0,0.032897949218749556,0.06716918945312456,0.1120758056640625,1.233001708984375,0.6824015808314537,1.4516737183625574,0.0,0.19087693181095872,0.32519180740432163,0.5490218027990943,50.08255868261738,0.2597897436682734,37.377338438266825,98.0392175195585,116764.05279518283,6.827678598381671
LKMN,mammal_panda,baseline,,,,,,,,,,,,,,,,,,,,,,,,,,,,,,,,,,,,,,,,,,,,0.16329668281774135,0.18034849049571375,3.663184870993469,0.5619669353479739,1.043853759765625,3.2575244903564453,3.800365447998047,4.100320816040039,4.718963623046875,0.21237193198623264,0.15922495053383043,3.0517578125e-05,0.09896469116210938,0.19324493408203125,0.2813606262207031,1.8974151611328125,1.1289811005418025,1.861237947351593,0.002713336219906117,0.24551695447205393,0.5389474003549783,1.260925963074302,97.53578362410752,68.4931563519777,83.55115107569878,100.67114834957127,25.17459235919174,8.17338706869529
LKMN,mammal_panda,block_01,2024-04-10,fff26c4d-43e8-7f61-fd2b-5782e7e5534a,2024-04-10 15:32:42.993256-04:00,2024-04-10 15:42:58.054943-04:00,757.612633,600.0,157.61263300000002,1295.27027,1020.0,275.27027,29.0,23.0,6.0,233.0,224.0,9.0,44.0,40.0,4.0,6.306514570789711,0.3788237910517096,1.231766908934453,0.07153753994109537,6.0,3.0,9.0,15.0,3.0,18.0,0.0,1098.0,164.0,254.0,42.0,187.0,20.0,0.0,17.0,0.0,178.0,125.0,98.0,8.0,0.04683500260953848,0.043517160822128885,4.988162882193576,0.3965074734107635,1.23834228515625,4.751483917236328,5.033535003662109,5.288902282714844,6.005279541015625,0.28705267703480075,0.10429107496589667,9.155273437411182e-05,0.21854400634765625,0.2868194580078134,0.35438537597656206,2.0208892822265634,0.6825929864991057,1.643312084382876,0.003231838125980649,0.15991631534914175,0.28593436846904785,0.5168105361394735,91.24163055281595,73.89162231797462,94.08447984034983,114.50383221517734,25.661513642231597,8.709887528900488
LKMN,mammal_panda,block_02,2024-04-10,5f37dd81-4a8f-f82f-c1a4-989ea7e3cc0d,2024-04-10 15:48:53.514967-04:00,2024-04-10 15:59:09.385737-04:00,1115.9730857,135.0,980.9730856999997,566.7962865,495.0,71.7962865,26.0,7.0,19.0,74.0,36.0,38.0,24.0,9.0,15.0,4.10351628037161,0.12015507733870857,1.8120247624351453,0.038969214272013594,1.0,10.0,11.0,8.0,1.0,9.0,0.0,1048.0,184.0,189.0,57.0,183.0,31.0,0.0,13.0,0.0,228.0,125.0,28.0,8.0,0.053976832266495384,0.05180624155573767,5.178986350887585,0.3713980847693007,1.42047119140625,4.951622009277344,5.228546142578126,5.4547119140625,5.9981231689453125,0.25749844063015626,0.10740916686575351,7.62939453125e-05,0.1865463256835933,0.251495361328125,0.32415771484375,2.3332672119140625,0.7679419283170662,1.7085256180196933,0.0010253667153793113,0.17434441955917174,0.3125160942732273,0.5787365371986538,40.73703458827219,73.89160062200216,95.89877732971473,118.1102047348603,23.404810579985934,8.80754743486618
LKMN,mammal_panda,block_03,2024-04-10,39593e97-4ced-1883-561b-c1981864c0f2,2024-04-10 16:02:52.761861-04:00,2024-04-10 16:13:08.723667-04:00,624.279096,450.0,174.279096,622.993601,420.0,202.993601,24.0,16.0,8.0,128.0,115.0,13.0,34.0,30.0,4.0,3.7466069625102696,0.20780509238262737,1.0135029313814303,0.055198227664135395,5.0,1.0,6.0,8.0,3.0,11.0,0.0,858.0,173.0,175.0,35.0,129.0,28.0,0.0,13.0,0.0,150.0,104.0,46.0,3.0,0.02585692995529061,0.024316939890710383,5.041946186483198,0.3318033937752299,1.484222412109375,4.859352111816406,5.0688629150390625,5.260528564453125,5.932708740234375,0.3057788786083986,0.10585058938807954,0.0002899169921875,0.2367248535156241,0.3078155517578134,0.3765869140625,1.763519287109375,0.6846355457551835,1.5874168171053193,0.002324178933072792,0.14857482831854732,0.2746397426090188,0.5178864200022693,69.06322240707506,72.4637412410719,95.07587727916034,117.18753536116468,24.42187613271441,8.764685026751026
LKMN,mammal_panda,block_04,2024-04-10,663178b4-4750-34d4-90da-7cb074beb55e,2024-04-10 16:17:10.545409-04:00,2024-04-10 16:27:26.081931-04:00,852.327581,720.0,132.327581,627.766637,360.0,267.766637,26.0,22.0,4.0,224.0,208.0,16.0,51.0,48.0,3.0,6.369651455060208,0.36391016941152354,1.3846905106956433,0.0828545474999451,10.0,2.0,12.0,4.0,3.0,7.0,0.0,970.0,175.0,191.0,78.0,187.0,35.0,0.0,8.0,0.0,134.0,95.0,59.0,7.0,0.03256138119925658,0.030128142423946003,5.123796608782992,0.34561332815016804,1.227630615234375,4.921783447265625,5.1660919189453125,5.376331329345703,5.9146881103515625,0.32644273815019853,0.1147670926400492,0.0006256103515616118,0.2516784667968752,0.322540283203125,0.39875793457031317,2.6148529052734384,0.6177258809564847,1.4198699577650915,0.0005217823952604147,0.14146438079373358,0.2518574394218587,0.45834344962785367,37.23760735367699,78.53398867200299,101.92111150864788,123.9670115199587,20.95752383176081,8.658771609644774
LKPW,mammal_thylacine,baseline,,,,,,,,,,,,,,,,,,,,,,,,,,,,,,,,,,,,,,,,,,,,0.1301741941276825,0.14402442309419053,4.795421209857954,0.45130038626877667,1.026153564453125,4.559074401855469,4.808666229248047,5.046979904174805,6.14691162109375,0.2622833462318741,0.11968210193823416,3.051757812411182e-05,0.20635986328124956,0.2671661376953116,0.3246002197265625,2.3590393066406254,1.0239301423868714,2.2094021396565986,0.0004678170714772695,0.17284862118930305,0.33638673256258234,0.8229380489040174,39.45779009486081,63.29112637917449,70.01419365813285,76.92310325728796,25.944670491939462,5.918531830666326
LKPW,mammal_thylacine,block_01,2024-02-21,ab54cf6b-4602-187d-4dbf-308f2571bdbb,2024-02-21 11:04:33.933170-05:00,2024-02-21 11:14:51.559857-05:00,521.326536,45.0,476.326536,960.0,960.0,0.0,17.0,9.0,8.0,52.0,40.0,12.0,11.0,3.0,8.0,2.1718419916657523,0.08419325313253506,0.844080327118378,0.017810111239574725,0.0,2.0,2.0,10.0,0.0,10.0,0.0,714.0,136.0,203.0,76.0,112.0,0.0,7.0,25.0,1.0,51.0,43.0,53.0,0.0,0.08365128024171316,0.09304633570782701,5.355621581108068,0.4200689871008189,1.897918701171875,5.173892974853516,5.4316253662109375,5.625949859619141,6.61151123046875,0.3013317283989536,0.10224060635015121,0.0004425048828133882,0.2390747070312491,0.3037872314453125,0.366058349609375,2.3970184326171875,0.8222331619045612,1.924358042662867,0.0005647899687258875,0.15820282268316896,0.29398765427265805,0.5807722960876524,39.93118369368217,60.72875009773232,71.56612808182368,83.33333002196431,28.890588464135142,5.77053895930515
LKPW,mammal_thylacine,block_02,2024-02-21,69d133a0-4a25-7ea2-81fb-2883be8d8185,2024-02-21 11:20:37.724183-05:00,2024-02-21 11:30:54.977712-05:00,231.90988054000002,30.0,201.90988054000002,838.5947804,795.0,43.5947804,13.0,5.0,8.0,27.0,18.0,9.0,6.0,2.0,4.0,1.0750646717485193,0.04374215574553646,0.37571252272257166,0.009720479054563656,0.0,1.0,1.0,6.0,0.0,6.0,0.0,825.0,153.0,225.0,86.0,226.0,1.0,0.0,22.0,0.0,43.0,36.0,31.0,0.0,0.04771955584105717,0.05306506377902175,5.105210382967806,0.39592271929052636,1.024932861328125,4.8743438720703125,5.127113342285156,5.374420166015625,6.103584289550781,0.24330611165960644,0.09126224450014618,3.0517578125e-05,0.18708038330078125,0.2469635009765616,0.299591064453125,1.979644775390625,0.7515369150405528,1.817576323110116,0.0003974632087267061,0.1512494800355946,0.27420351048857344,0.5249289952029016,47.742674239536576,58.139531230290615,69.25495220607893,81.96722721099071,34.23818655218974,5.668922911245444
LKPW,mammal_thylacine,block_03,2024-02-21,3ff660ba-4d88-cf89-379c-6fa45712769a,2024-02-21 11:34:24.978245-05:00,2024-02-21 11:44:41.321190-05:00,89.517073,60.0,29.517073,1010.203544,855.0,155.203544,11.0,9.0,2.0,53.0,49.0,4.0,5.0,4.0,1.0,1.4100336834390146,0.08599108731584491,0.1452390649170163,0.008112366727909898,0.0,0.0,0.0,1.0,0.0,1.0,0.0,816.0,157.0,238.0,83.0,158.0,1.0,3.0,30.0,0.0,46.0,45.0,53.0,0.0,0.07446960838126149,0.07646230580149392,4.972176515888931,0.4035960472299486,1.24078369140625,4.7496490478515625,4.989189147949219,5.233924865722656,6.006370544433594,0.24565393744663105,0.09117894178715472,6.103515625e-05,0.19017791748046875,0.250030517578125,0.30262756347656294,2.954681396484375,0.7194603831828545,1.7073128168470137,0.003623960849337075,0.14893689540160726,0.27244555303393025,0.517318396031083,37.04117174883829,55.5555594801415,68.29096272010686,82.87293079670008,37.34467346596443,5.744640445706235
LKPW,mammal_thylacine,block_04,2024-02-21,87069e81-4953-3251-444b-88a144ec20b5,2024-02-21 11:48:22.906621-05:00,2024-02-21 11:58:38.671666-05:00,607.5118525,135.0,472.51185250000003,1047.019465,885.0,162.019465,15.0,9.0,6.0,42.0,31.0,11.0,16.0,9.0,7.0,1.844584728741788,0.06820783404488315,0.9865968479909412,0.0259839367790031,1.0,4.0,5.0,13.0,0.0,13.0,0.0,649.0,112.0,148.0,50.0,158.0,2.0,0.0,28.0,0.0,46.0,46.0,43.0,7.0,0.06308038645530438,0.06451083388049901,4.6923801057634815,0.39158157838289276,1.4427337646484375,4.445098876953125,4.6954345703125,4.946044921875,5.810211181640625,0.218399756689385,0.08903974273755373,3.0517578125e-05,0.16596984863281206,0.21893310546875044,0.26987457275390625,2.10955810546875,0.8373537001700008,4.559256696853517,0.00029040825658262394,0.16673495670961336,0.2974044891707394,0.5535645846259507,810.6752392303517,55.970147859548334,68.11453065694968,81.52175877800083,40.124790607876015,5.675135635719647
LPDW,mammal_panda,baseline,,,,,,,,,,,,,,,,,,,,,,,,,,,,,,,,,,,,,,,,,,,,0.0993779240141895,0.0775795588915737,3.1297008188442805,0.2267878606333533,1.60137939453125,2.9844226837158203,3.1301498413085938,3.272428512573242,4.1832275390625,0.4891477667265143,0.10061078460853033,0.008697509765625444,0.42757415771484397,0.49044036865234375,0.54656982421875,1.4075775146484375,0.7572131621644714,2.146337871746709,0.0014337230971580464,0.25050770093478947,0.43352595604382815,0.7282908091923154,138.42443302600762,85.22727318908558,91.78731920455522,97.40260735513651,9.00368765561852,8.972145013575638
LPDW,mammal_panda,block_01,2024-03-26,,,,,,,,,,,,,,,,,,,,,,,,,,,,,,,,,,,,,,,,,,,0.028721297043503777,0.02924705939891913,3.84207859506552,0.2823077635662425,1.744598388671875,3.658975601196289,3.8336868286132812,4.0304412841796875,4.992691040039063,0.7847414032023612,0.11301483932977557,0.005783081054687056,0.7197570800781259,0.79449462890625,0.8581085205078121,1.5843048095703125,0.6967279730715573,1.8761329166232383,0.0013062586933464348,0.16912444011683134,0.2985845272385262,0.5345000736291098,99.98043541930377,83.3333024272327,93.08740440745521,102.73983239646438,10.56633126685589,8.40075272349535
LPDW,mammal_panda,block_02,2024-03-26,,,,,,,,,,,,,,,,,,,,,,,,,,,,,,,,,,,,,,,,,,,0.027881314369789113,0.02891123099558607,3.820008843280256,0.29823901347278853,1.42047119140625,3.617708206176758,3.82708740234375,4.025209426879883,5.013458251953125,0.7961435363218657,0.11638559426034138,0.0213775634765625,0.7237892150878907,0.8069763183593752,0.8772087097167967,1.585647583007812,0.7471550127860296,2.0359143060601834,0.0019633410879302264,0.19910046226995978,0.34784795218417575,0.6010196425935161,194.8145451948767,79.36507495993243,89.64118460652936,99.3377724988839,15.375120015444752,8.558620881279172
LPDW,mammal_panda,block_03,2024-03-26,,,,,,,,,,,,,,,,,,,,,,,,,,,,,,,,,,,,,,,,,,,0.044526103627961854,0.050314619998033626,3.8053209519472575,0.3134758044557548,1.9592437744140625,3.579803466796875,3.7936630249023438,4.019920349121094,4.943115234375,0.7682586385755268,0.12213361076720748,0.0042572021484375,0.678829193115234,0.7751312255859375,0.8610534667968751,1.7296142578125009,0.8403836734728797,8.375793236220108,0.004170760563645449,0.23106673288643514,0.40600971882245607,0.7011515454245614,1560.8179030021565,78.53403768761422,88.54956107845892,98.68424272274106,15.971301605629742,8.74290720218307
LPDW,mammal_panda,block_04,2024-03-26,,,,,,,,,,,,,,,,,,,,,,,,,,,,,,,,,,,,,,,,,,,0.16093812176681258,0.2214484679665738,3.6603325001187184,0.33205907200734625,1.70159912109375,3.4243621826171875,3.642684936523438,3.87762451171875,5.359146118164063,0.7018741814610943,0.13893314295161385,0.001953125,0.6065826416015621,0.702911376953125,0.802978515625,2.271026611328125,0.8801261388020413,1.7086069416745149,0.0007333633972585802,0.25403935777453346,0.4570555779345823,0.8354241463232496,67.82909317250424,76.14214469650187,88.57873945012949,100.6711886211879,19.186134172703856,9.2252072277743
LPZV,mammal_thylacine,baseline,,,,,,,,,,,,,,,,,,,,,,,,,,,,,,,,,,,,,,,,,,,,0.12984810499926264,0.12967605564567664,3.3130913881748985,0.24560774091323107,1.6914520263671875,3.15802001953125,3.306793212890625,3.4712066650390625,4.6401214599609375,0.1323926800247463,0.0673318908306274,0.0,0.09217834472656217,0.1284942626953125,0.16473388671875,1.414886474609375,0.7612196782134555,3.0475459083354264,0.0017560252334110832,0.1579344328898833,0.27323377034423046,0.4799742948913003,340.75600583820983,48.231512880928314,83.32580378836677,119.0476312118335,224.16801158323057,7.03879604600419
LPZV,mammal_thylacine,block_01,2024-03-13,6a0b7489-4997-a37e-d69c-38ab276c14cd,2024-03-13 16:29:52.668457-04:00,2024-03-13 16:40:09.133874-04:00,400.304953,315.0,85.30495300000001,1124.165954,465.0,659.1659539999999,21.0,18.0,3.0,127.0,122.0,5.0,24.0,21.0,3.0,3.129874934087341,0.20601317851379164,0.6493550845853856,0.03893162428607086,3.0,0.0,3.0,6.0,4.0,10.0,0.0,1214.0,202.0,333.0,46.0,265.0,5.0,37.0,0.0,0.0,91.0,146.0,78.0,0.0,0.05768676781256001,0.057998847705012485,4.054154926909256,0.3950591876008049,1.7506561279296875,3.8085708618164062,4.0756988525390625,4.320442199707031,5.078155517578125,0.21698569923059532,0.0765118151243081,1.52587890625e-05,0.17784118652343706,0.2247924804687491,0.2633514404296866,1.5884246826171875,0.7368346516589596,1.8346173291313275,0.0023305067173168413,0.1874383863565662,0.32457468292519653,0.5490088216084617,167.7459034161028,49.34210201255854,83.80005827141757,117.18753536116468,225.25127323193388,7.529419206148672
LPZV,mammal_thylacine,block_02,2024-03-13,95b311f5-4446-507a-907e-07b9160fc694,2024-03-13 16:44:37.260606-04:00,2024-03-13 16:54:52.478340-04:00,662.756894,195.0,467.756894,1041.44033,615.0,426.44033,26.0,13.0,13.0,94.0,73.0,21.0,21.0,13.0,8.0,3.417961630150278,0.15279143432494097,1.0772720898191794,0.03413425660450809,1.0,4.0,5.0,7.0,4.0,11.0,0.0,1098.0,187.0,199.0,39.0,279.0,14.0,39.0,0.0,0.0,137.0,133.0,68.0,0.0,0.057681437243481036,0.05628056722947234,4.5250004955961,0.42423526888672886,1.3532257080078125,4.278539657592773,4.567985534667969,4.8113250732421875,5.534591674804688,0.2286285155404558,0.0731995654869112,0.0004730224609370559,0.187408447265625,0.22900390624999978,0.27012634277343817,1.9250946044921875,0.7682847941663514,1.6571869806541553,0.0,0.19675842685297354,0.3392810552738135,0.57568661340338,28.909473245367764,48.387096402052165,83.7293087159012,120.96772937571352,216.71244484068595,7.757159653757954
LPZV,mammal_thylacine,block_03,2024-03-13,15f350b5-46bc-916a-4e48-529cd8813848,2024-03-13 16:58:46.618860-04:00,2024-03-13 17:09:03.914820-04:00,1252.463315,300.0,952.463315,1159.8691292,615.0,544.8691292000001,33.0,14.0,19.0,112.0,80.0,32.0,33.0,20.0,13.0,4.219894821764264,0.18143647011718655,2.028951096650624,0.05345895994524247,2.0,4.0,6.0,7.0,2.0,9.0,0.0,971.0,181.0,257.0,46.0,153.0,12.0,51.0,0.0,0.0,105.0,133.0,32.0,0.0,0.04487412468803761,0.04470451406556662,4.420501082815424,0.4270845930526882,1.5738983154296875,4.15948486328125,4.4429473876953125,4.713714599609375,5.85809326171875,0.20424697005952752,0.07284302258845143,0.0001983642578125,0.1636962890625,0.204620361328125,0.2441253662109375,2.212890625,0.7090451226533151,1.6768833932502256,0.0009194611839040064,0.1552296738206138,0.26986783198167574,0.47002447264343744,57.38187585923201,50.505041909885016,84.82896383183504,119.0476312118335,207.74092121329565,7.6737187283934
LPZV,mammal_thylacine,block_04,2024-03-13,01c80c4d-46c8-45f5-d583-0281844f2f5d,2024-03-13 17:12:52.499283-04:00,2024-03-13 17:23:11.285143-04:00,1313.655117,690.0,623.655117,1153.0028462,675.0,478.0028462,31.0,21.0,10.0,182.0,159.0,23.0,56.0,46.0,10.0,5.894646505820285,0.29412436800026426,2.1229559398787816,0.09049980553854285,9.0,3.0,12.0,5.0,2.0,7.0,0.0,998.0,155.0,210.0,41.0,277.0,15.0,42.0,0.0,1.0,93.0,104.0,59.0,0.0,0.034968121628249145,0.03477194703285925,4.385371870015182,0.35985234104710295,1.9656295776367188,4.161319732666016,4.40692138671875,4.622440338134766,5.671905517578125,0.21566215697646934,0.0671486928865941,0.0001373291015625,0.178680419921875,0.2180023193359375,0.2528839111328116,1.9921875,0.7195526265643627,6.253301202233915,0.0025247369136131782,0.16428084047151537,0.28397384817979654,0.49460100099239235,1198.2186943581385,48.387096402052165,78.63000779766854,111.111118960283,128.5271475871481,7.748748229480631
LRTB,mammal_thylacine,baseline,,,,,,,,,,,,,,,,,,,,,,,,,,,,,,,,,,,,,,,,,,,,0.05147153322195091,0.05564837424495566,4.004441879707998,0.29871044025470206,1.8551483154296875,3.7977638244628906,3.984100341796876,4.19244384765625,5.0428009033203125,0.3102443898556047,0.09133774608690885,0.0022125244140625,0.25505065917968783,0.3085556030273433,0.3625068664550781,1.558746337890625,0.7215079512571664,3.4159695471822826,0.0027354804107188133,0.17861045244301996,0.3132591474407431,0.5655628379527455,384.5096027830457,78.1249871943167,92.49921193971407,107.14286809065015,38.85048359446761,9.49141153972401
LRTB,mammal_thylacine,block_01,2024-03-06,85a5023a-4976-0721-23b2-028c85a483dd,2024-03-06 13:26:26.617466-05:00,2024-03-06 13:36:42.000566-05:00,713.599368,690.0,23.599368,705.0,705.0,0.0,24.0,22.0,2.0,178.0,172.0,6.0,48.0,46.0,2.0,4.489740413735769,0.289250712279879,1.1596018285195027,0.07800019207547298,4.0,0.0,4.0,4.0,0.0,4.0,0.0,1012.0,194.0,257.0,35.0,222.0,30.0,0.0,17.0,0.0,69.0,117.0,55.0,0.0,0.07204203051530564,0.06911524805680837,4.512203647924358,0.32226660271882424,1.69384765625,4.311677932739258,4.5146942138671875,4.706239700317383,5.8128204345703125,0.5190388462356181,0.09594738183668555,0.005340576171875,0.4589271545410156,0.516357421875,0.579036712646485,1.9071960449218759,0.7575619988122018,1.4772809228673536,0.0016770772711802364,0.20563011203649006,0.3526099796857597,0.6172841147852342,22.071441707473337,80.64513999557131,101.474265098362,123.9670115199587,33.296376835391584,9.678179875458705
LRTB,mammal_thylacine,block_02,2024-03-06,32143347-4542-7282-6c5b-b7b56e6a33c5,2024-03-06 13:42:57.110688-05:00,2024-03-06 13:53:13.359943-05:00,823.045265,270.0,553.045265,629.111161,360.0,269.111161,21.0,12.0,9.0,83.0,67.0,16.0,26.0,18.0,8.0,3.4690360153052033,0.134685761202259,1.33557202434265,0.04219072037661125,1.0,2.0,3.0,2.0,1.0,3.0,0.0,944.0,219.0,180.0,47.0,221.0,38.0,0.0,32.0,0.0,52.0,102.0,51.0,0.0,0.07762659489633174,0.051709529505582136,4.431432218414179,0.34040801845592816,1.86767578125,4.207056045532227,4.442226409912109,4.663978576660156,5.5248565673828125,0.5241276966158923,0.09275329436828024,0.04583740234375,0.46046447753906317,0.5199203491210933,0.5828094482421877,1.385894775390625,0.8360609881527019,13.14246061383728,0.000688772453202578,0.21206867883638542,0.3670112218443552,0.6426960144822278,2494.7194807803057,78.94736941171156,96.16722592736173,114.50383221517734,35.05290064085602,9.765403737269692
LRTB,mammal_thylacine,block_03,2024-03-06,dd256e2a-4e9a-fe7f-54b8-66bfb1d5fa7e,2024-03-06 13:57:21.312206-05:00,2024-03-06 14:07:37.711329-05:00,927.0725600000001,615.0,312.07256,1189.696704,825.0,364.696704,31.0,22.0,9.0,151.0,132.0,19.0,48.0,41.0,7.0,4.692553383142954,0.2449711467224135,1.504013431245586,0.0778716227991778,2.0,1.0,3.0,9.0,0.0,9.0,0.0,942.0,134.0,215.0,56.0,165.0,38.0,0.0,34.0,0.0,96.0,145.0,59.0,0.0,0.08039318283749439,0.06119499676085115,4.350736820388002,0.3432128218042273,1.7400360107421875,4.1394500732421875,4.376129150390625,4.5862579345703125,6.0135345458984375,0.4687214276302685,0.09571773551962667,0.0276031494140625,0.41142272949218817,0.4698867797851558,0.5285491943359371,1.813201904296875,0.7237389612533809,1.372821125560994,0.002503758321079052,0.20903291089006545,0.362322569934721,0.6284499026408563,18.473565401258742,76.92310325728796,93.35623406951085,110.29418416093264,38.19343157752877,9.750800198339507
LRTB,mammal_thylacine,block_04,2024-03-06,0f012d24-4034-4c67-7810-53878af71db6,2024-03-06 14:13:40.557008-05:00,2024-03-06 14:23:56.074452-05:00,1017.84505,480.0,537.84505,937.479055,660.0,277.479055,26.0,18.0,8.0,130.0,114.0,16.0,41.0,32.0,9.0,3.977009876831371,0.21120441226682765,1.6536412735688448,0.06661062233030719,2.0,2.0,4.0,3.0,0.0,3.0,0.0,873.0,178.0,147.0,27.0,192.0,22.0,0.0,26.0,0.0,107.0,117.0,54.0,0.0,0.08395364994293088,0.04441466924718376,4.402204128720651,0.2966088362105961,1.992218017578125,4.2076568603515625,4.403800964355469,4.61474609375,5.4855499267578125,0.4966784926963595,0.09813595454282824,0.006317138671875,0.4330101013183596,0.4883880615234375,0.5520973205566408,1.630706787109375,0.735196978796202,1.578018987525259,0.0032437939499602455,0.205507041497991,0.3540802084941208,0.6126104534583228,125.7482612034052,74.62680848805076,90.51586871228525,107.14291370647848,41.47182931360629,9.833158238711228
MJKL,mammal_thylacine,baseline,,,,,,,,,,,,,,,,,,,,,,,,,,,,,,,,,,,,,,,,,,,,0.21234678063213264,0.1108815103555159,4.487937693064356,0.33918171709558853,1.384124755859375,4.2940216064453125,4.4976654052734375,4.6899261474609375,5.667411804199219,0.2754015678712978,0.24798368454166986,1.52587890625e-05,0.11018753051757812,0.21783447265624956,0.3420982360839846,2.3986968994140625,1.03403888356932,1.9843107206289727,0.0047128130301538115,0.27840995492938536,0.5376851692230515,1.1249018284141432,133.41262596420847,78.53401317980097,87.1650191608143,95.54143435400312,16.665068536279872,6.8418610122307655
MJKL,mammal_thylacine,block_01,2024-04-09,9e78a544-4fad-2033-7311-4f8a28b2f34f,2024-04-09 12:45:55.566185-04:00,2024-04-09 12:56:11.552493-04:00,857.00324,750.0,107.00324,1245.2587106,885.0,360.25871060000003,32.0,27.0,5.0,270.0,261.0,9.0,54.0,50.0,4.0,6.792269002349318,0.43832143100167736,1.3912699501106442,0.08766428620033548,9.0,0.0,9.0,14.0,4.0,18.0,0.0,1250.0,179.0,314.0,23.0,227.0,23.0,0.0,49.0,58.0,137.0,119.0,57.0,27.0,0.06705873828615593,0.05789295720220269,5.207083916873707,0.3631935380634204,1.0966644287109375,5.001136779785156,5.248691558837891,5.458187103271484,6.11505126953125,0.29955828319291006,0.10737125739029556,9.1552734375e-05,0.2394638061523442,0.3080902099609375,0.3668212890625,2.224975585937501,0.8204574973682223,16.11104608410834,0.0017803837448051296,0.20092711951817105,0.3531407063404102,0.6328575974889641,3139.7036220476502,70.09346231704994,89.8147290296133,111.94034551136804,29.703693360311853,7.312774043564467
MJKL,mammal_thylacine,block_02,2024-04-09,505ab3c0-4bfb-f248-a0ff-53be350d22d6,2024-04-09 13:00:27.405583-04:00,2024-04-09 13:10:42.868378-04:00,883.782105,720.0,163.782105,1312.776225,1200.0,112.776225,28.0,26.0,2.0,269.0,265.0,4.0,51.0,48.0,3.0,6.724746077575657,0.4370694738745337,1.435963493130401,0.08286447274201196,8.0,1.0,9.0,19.0,2.0,21.0,0.0,1225.0,185.0,230.0,21.0,292.0,21.0,0.0,39.0,44.0,96.0,169.0,74.0,37.0,0.11124626327182764,0.0961138027007525,4.901150510523169,0.5408017885058073,1.957733154296875,4.7344818115234375,5.025066375732422,5.2509918212890625,5.8886566162109375,0.2403486995552477,0.11574980522977757,4.577636718661182e-05,0.16199111938476562,0.2515106201171875,0.3162384033203133,2.33392333984375,0.7228294272583763,1.95434900360422,0.0009792694327216468,0.19296555893548023,0.3359188303654951,0.6022722880700658,205.7148278404185,67.56756669679118,85.58620477244123,106.3829992302122,28.09145272380792,7.226229417635595
MJKL,mammal_thylacine,block_03,2024-04-09,e27612de-4620-d131-fe94-1d8df7bf34e9,2024-04-09 13:15:14.374021-04:00,2024-04-09 13:25:29.235641-04:00,749.6273185,420.0,329.6273185,1488.7141356,885.0,603.7141356,26.0,18.0,8.0,136.0,120.0,16.0,35.0,28.0,7.0,3.9573113055910047,0.2211879804759972,1.2191805344753832,0.056923377328381625,3.0,4.0,7.0,12.0,8.0,20.0,0.0,1156.0,168.0,271.0,24.0,189.0,29.0,0.0,43.0,49.0,179.0,133.0,38.0,29.0,0.05131947124662293,0.052320532612890776,4.771346549660593,0.3645605461641128,1.7390899658203125,4.560302734375,4.807960510253906,5.033599853515626,5.738815307617188,0.30225860328946597,0.10560057779790914,0.0002593994140625,0.2365379333496087,0.3049392700195308,0.3678016662597656,2.5110626220703134,0.7054835717385738,1.3507983460742827,0.0012584106968988628,0.2190355437453563,0.3726101538283473,0.6392946819119069,57.68141851493165,69.12440254602397,84.08103128358005,104.16667115081259,27.6077347685128,7.168156546722963
MJKL,mammal_thylacine,block_04,2024-04-09,5d02a094-4bec-a7f8-e7d4-979a9b28ba7c,2024-04-09 13:29:13.404374-04:00,2024-04-09 13:39:30.583512-04:00,1054.26133,990.0,64.26133,1064.516246,705.0,359.516246,27.0,24.0,3.0,275.0,269.0,6.0,68.0,66.0,2.0,6.870770017829087,0.44557565716033654,1.7081933997581107,0.11017870795237412,14.0,1.0,15.0,7.0,5.0,12.0,0.0,1271.0,158.0,241.0,27.0,269.0,47.0,0.0,41.0,59.0,154.0,193.0,51.0,24.0,0.055165269575157175,0.05522480472470947,4.748292111782801,0.365924846865539,1.817718505859375,4.508672714233398,4.7677459716796875,5.009761810302735,6.228515625,0.2793231473579044,0.10179575443458772,6.103515625e-05,0.21747589111328036,0.2845306396484384,0.3460693359375,1.9948883056640625,0.7708331033130207,2.356213528353071,0.0,0.22997513267305592,0.3968069529108357,0.6923573919844284,364.05741913916864,43.227665349638784,87.29140573346172,133.9285851133127,35.00630889814282,7.854427854402974
MJUY,mammal_panda,baseline,,,,,,,,,,,,,,,,,,,,,,,,,,,,,,,,,,,,,,,,,,,,0.05914279058933147,0.06662007919869554,4.479894741377014,0.3183155928782595,1.1173095703125,4.316690444946289,4.513427734375,4.685121536254883,5.3747406005859375,0.200915876006118,0.11991488340853333,0.0003204345703116118,0.132171630859375,0.180877685546875,0.242706298828125,2.40252685546875,0.637869410332267,1.3938123841673864,0.0017383555284649444,0.15931124164757163,0.28938543465724664,0.5547924934188966,31.988818792672635,73.52941313966888,79.00966497985596,84.74576933270069,14.462742925102914,10.416780760885775
MJUY,mammal_panda,block_01,2024-03-13,6a0b7489-4997-a37e-d69c-38ab276c14cd,2024-03-13 16:29:52.668457-04:00,2024-03-13 16:40:09.133874-04:00,710.168577,150.0,560.1685769999999,1408.4624364000001,660.0,748.4624364,25.0,10.0,15.0,90.0,69.0,21.0,18.0,10.0,8.0,3.4141820691946454,0.14599359107276572,1.152000675814066,0.029198718214553145,0.0,2.0,2.0,6.0,6.0,12.0,0.0,938.0,176.0,213.0,62.0,207.0,12.0,65.0,0.0,0.0,78.0,60.0,59.0,0.0,0.08803994823334066,0.08617195321466072,4.601119080449871,0.36588561907737704,1.4052276611328125,4.410762786865234,4.644256591796875,4.843486785888672,5.9387969970703125,0.2555405062592784,0.09253641251698512,1.52587890625e-05,0.2047424316406241,0.2498779296875,0.296844482421875,2.148956298828126,0.9327189596775444,2.8450964762322353,0.00092425373275263,0.1713782581550186,0.31846872362658196,0.6394858422258107,345.28877316880147,68.80734110508655,83.00282705120806,101.35135004518676,26.33287251362688,7.615115218217028
MJUY,mammal_panda,block_02,2024-03-13,95b311f5-4446-507a-907e-07b9160fc694,2024-03-13 16:44:37.260606-04:00,2024-03-13 16:54:52.478340-04:00,1026.499525,105.0,921.499525,908.819001,495.0,413.819001,24.0,3.0,21.0,62.0,16.0,46.0,24.0,7.0,17.0,4.211098948750395,0.10077732902283341,1.6685141995597936,0.039010578976580675,2.0,5.0,7.0,4.0,2.0,6.0,0.0,942.0,141.0,187.0,79.0,229.0,20.0,31.0,0.0,0.0,116.0,97.0,33.0,6.0,0.08173906519618876,0.08362717883312076,5.018259792995581,0.37103254625150306,1.4237060546875,4.820045471191406,5.065277099609376,5.262054443359375,6.7557220458984375,0.2979403473510227,0.096974376808872,4.577636718661182e-05,0.248565673828125,0.29567718505859375,0.3427276611328123,2.8978729248046875,0.9826992001918509,2.768100917017868,0.001796220262780553,0.2062472433364678,0.38958769073098537,0.7828358467605969,317.42146489855713,70.75471284339443,82.68582894929615,95.54139808194537,17.3089552898201,10.509554370484373
MJUY,mammal_panda,block_03,2024-03-13,15f350b5-46bc-916a-4e48-529cd8813848,2024-03-13 16:58:46.618860-04:00,2024-03-13 17:09:03.914820-04:00,808.2577785999999,225.0,583.2577786,951.459723,420.0,531.459723,21.0,7.0,14.0,72.0,44.0,28.0,28.0,15.0,13.0,3.066299333953198,0.11663773078961993,1.3093521276244864,0.04535911752929664,1.0,2.0,3.0,4.0,3.0,7.0,0.0,878.0,124.0,233.0,54.0,136.0,19.0,48.0,0.0,0.0,121.0,79.0,56.0,7.0,0.10271714699565457,0.1053144198591479,4.823487239319732,0.37956578673511576,1.0171051025390625,4.608354568481445,4.859539031982422,5.089033126831055,6.0211334228515625,0.22840927182479445,0.09614502088508135,6.103515624911182e-05,0.17441940307617143,0.2212753295898442,0.2694091796875,2.080078125,0.9680882725869137,3.843810385881356,0.0014968658720712657,0.19556072053374182,0.37602443789017315,0.7563136067910354,579.5780843916104,70.42253536892058,82.10192943204376,94.3396348071677,16.903903939614278,10.399776914194812
MJUY,mammal_panda,block_04,2024-03-13,01c80c4d-46c8-45f5-d583-0281844f2f5d,2024-03-13 17:12:52.499283-04:00,2024-03-13 17:23:11.285143-04:00,766.5010698,135.0,631.5010698,1030.91356,615.0,415.91356,27.0,5.0,22.0,111.0,65.0,46.0,22.0,9.0,13.0,5.272283733665149,0.1793835431210403,1.2387178171783046,0.035553495032998976,0.0,5.0,5.0,8.0,1.0,9.0,0.0,836.0,107.0,107.0,48.0,194.0,14.0,59.0,0.0,0.0,168.0,94.0,36.0,4.0,0.09727176807516455,0.10199467416972316,4.758059680057724,0.3409423663351589,1.5078582763671875,4.566162109375,4.7950897216796875,4.9936065673828125,6.268844604492188,0.2743998982841967,0.08914233816064447,0.000579833984375,0.22351074218750044,0.2693939208984375,0.3188629150390625,2.3028564453125,0.899876824078616,2.056285211102265,0.0008519958910934095,0.19295494748922676,0.3588655817915351,0.6977241513561477,58.2344944315893,69.76745037081024,80.80365394225124,93.75008940705243,18.11931324600358,10.486758478991309
MNBW,reptile_komodo,baseline,,,,,,,,,,,,,,,,,,,,,,,,,,,,,,,,,,,,,,,,,,,,0.019153773911324206,0.021946517720330187,5.0690546049152845,0.381013039077878,2.4537353515625,4.844572067260742,5.124263763427734,5.318519592285156,5.89154052734375,0.9463477855311127,0.10845314634920451,0.193115234375,0.8847427368164062,0.952880859375,1.0205535888671875,2.0291900634765625,0.6310899888256993,2.043853323928786,0.0022260986383560452,0.18148901109907226,0.3289380099216199,0.5916246200161057,183.05012933620122,67.87329833471107,75.82212811452943,84.74579787079998,13.08125828628176,7.528387079822276
MNBW,reptile_komodo,block_01,2024-03-26,,,,,,,,,,,,,,,,,,,,,,,,,,,,,,,,,,,,,,,,,,,0.018550326348333906,0.018501251410904453,5.284380600841427,0.322592598161729,2.4542694091796875,5.050090789794922,5.295196533203126,5.523021697998047,6.133560180664063,0.8433353587930047,0.1167655030718646,0.017547607421875,0.7696075439453125,0.845458984375,0.9229278564453125,3.0184173583984375,0.8150837032882673,1.8695863269392496,0.0008780763018202664,0.21778235712566518,0.4070362716409996,0.7666241975686033,132.90131733976693,61.47540539094659,80.02503164776822,102.04084744044602,22.95839469955032,8.08698113883542
MNBW,reptile_komodo,block_02,2024-03-26,,,,,,,,,,,,,,,,,,,,,,,,,,,,,,,,,,,,,,,,,,,0.023886138613861387,0.02301980198019802,5.308384703095124,0.3068957888306587,2.109970092773437,5.115074157714844,5.3345489501953125,5.525886535644531,6.327117919921875,0.7148296878638012,0.12209919758972224,0.070037841796875,0.6353607177734375,0.7074737548828116,0.78948974609375,3.2855377197265625,0.7822488415674703,1.884981085818623,0.0005535709301518084,0.2221352315630418,0.40393485258771966,0.7367222928884087,176.23037944375181,64.65519088521401,80.84558237455762,98.0392175195585,22.702901281055787,7.993953935887589
MNBW,reptile_komodo,block_03,2024-03-26,,,,,,,,,,,,,,,,,,,,,,,,,,,,,,,,,,,,,,,,,,,0.061166658417066776,0.058555660050487554,5.289878044847871,0.31639143381149987,1.56622314453125,5.100259780883789,5.32635498046875,5.512784957885743,6.884124755859375,0.6776677132490123,0.12428038411713589,0.04945373535156161,0.5991973876953125,0.6740264892578116,0.7570114135742188,2.768646240234375,0.8458250152705057,2.2999155184481794,0.0014784538157012021,0.22187511952839845,0.4020278355589134,0.7369966873470373,250.77788834012168,64.65517427422351,79.44040529311125,95.54139808194537,22.734618358644298,7.906632084970974
MNBW,reptile_komodo,block_04,2024-03-26,,,,,,,,,,,,,,,,,,,,,,,,,,,,,,,,,,,,,,,,,,,0.02900408122635875,0.024785984471431415,5.085258815860576,0.33291904963334956,2.7195281982421875,4.863502502441406,5.087684631347656,5.332801818847656,6.141448974609375,0.6839947683966777,0.09738136393938049,0.010803222656249112,0.6336517333984377,0.6851348876953129,0.738250732421875,3.3351287841796875,0.8541668017709743,1.8905062472987713,0.0009568683992755245,0.22414117395367042,0.41187487590134586,0.7488225000117599,83.13146975034437,65.7894779495478,78.78928984084358,93.16772862922976,23.059297165148962,7.78464163359983
MNOP,mammal_thylacine,baseline,,,,,,,,,,,,,,,,,,,,,,,,,,,,,,,,,,,,,,,,,,,,0.05354640980735552,0.07688266199649738,3.9884140167400726,0.42538993401216446,1.7913818359375,3.7107315063476562,3.970916748046875,4.253725051879883,5.68212890625,0.457526033599705,0.16202438842527875,0.001983642578125,0.34817504882812467,0.4556121826171884,0.5570487976074218,1.44976806640625,0.814102984787442,2.110463107812867,0.00014970668475660368,0.23778652402844094,0.43039782321409237,0.8024118549620852,123.01952656598121,64.93506319253306,82.90922956569162,101.35135004518676,31.370741069297804,7.292130045995226
MNOP,mammal_thylacine,block_01,2024-04-10,fff26c4d-43e8-7f61-fd2b-5782e7e5534a,2024-04-10 15:32:42.993256-04:00,2024-04-10 15:42:58.054943-04:00,652.340971,630.0,22.340971,884.514133,765.0,119.51413299999999,26.0,18.0,8.0,186.0,177.0,9.0,43.0,42.0,1.0,4.6411544302547325,0.3024086915691759,1.0606106424573962,0.06991168676061593,8.0,0.0,8.0,10.0,2.0,12.0,0.0,996.0,153.0,229.0,34.0,208.0,14.0,0.0,21.0,2.0,145.0,107.0,39.0,4.0,0.0735767068470282,0.08420690840350575,5.4401078246169705,0.8587032781320197,1.392059326171875,4.687402725219727,5.7236328125,6.1292724609375,7.442535400390625,0.20129712806573513,0.11257544869432203,3.051757812411182e-05,0.12017822265625,0.1973648071289067,0.2718696594238281,1.7458801269531246,0.7428931175393692,1.5234178583867872,0.0018373006078878477,0.2024867104873021,0.3569026635528615,0.6455730175843086,44.247209388382245,76.92305623192375,96.81204698823778,116.27911618751907,24.860886749463813,7.0686315308028655
MNOP,mammal_thylacine,block_02,2024-04-10,5f37dd81-4a8f-f82f-c1a4-989ea7e3cc0d,2024-04-10 15:48:53.514967-04:00,2024-04-10 15:59:09.385737-04:00,963.7442173,675.0,288.7442173,1164.7472412,645.0,519.7472412,30.0,18.0,12.0,172.0,149.0,23.0,53.0,45.0,8.0,5.35708510330828,0.27927936894943073,1.5648481211407386,0.08605701485069668,8.0,2.0,10.0,8.0,5.0,13.0,1.0,996.0,162.0,204.0,26.0,267.0,12.0,0.0,27.0,2.0,145.0,98.0,42.0,7.0,0.11211970862181728,0.12103921878171445,5.738856607663934,0.5320411327610812,1.6481475830078125,5.385313034057617,5.799648284912109,6.121919631958008,7.164642333984375,0.13569561862614166,0.10186926062672554,0.0,0.05999755859375,0.11729431152343661,0.1902618408203125,2.6420745849609375,0.7624930644433391,1.658399950174224,0.001069457718767972,0.20081286718335806,0.35071338611977126,0.6358308865283664,63.131172617127106,75.75757046668326,95.58553433258318,115.38467252045702,24.32696219320149,7.009456907621978
MNOP,mammal_thylacine,block_03,2024-04-10,39593e97-4ced-1883-561b-c1981864c0f2,2024-04-10 16:02:52.761861-04:00,2024-04-10 16:13:08.723667-04:00,857.366419,450.0,407.366419,766.3448234,510.0,256.3448234,24.0,14.0,10.0,150.0,128.0,22.0,37.0,30.0,7.0,4.509383232602574,0.24352159263589143,1.3919149055160733,0.06006865951685322,5.0,3.0,8.0,7.0,3.0,10.0,0.0,1013.0,166.0,238.0,57.0,187.0,20.0,0.0,30.0,1.0,141.0,118.0,33.0,11.0,0.09697927384977216,0.11291587044931158,5.821224498422808,0.4289110956597788,1.85308837890625,5.554607391357422,5.849006652832031,6.1087646484375,7.284271240234375,0.1423899309302549,0.10321691318028918,0.0,0.0659942626953125,0.125244140625,0.19780349731445312,3.3378448486328125,0.674913123376851,1.3138651403993948,0.0,0.19278647106593455,0.3396575349013391,0.6062431691860866,40.219350315611734,79.78722412643539,98.04989711119158,116.27911618751907,21.529448716775295,7.021716144984241
MNOP,mammal_thylacine,block_04,2024-04-10,663178b4-4750-34d4-90da-7cb074beb55e,2024-04-10 16:17:10.545409-04:00,2024-04-10 16:27:26.081931-04:00,750.8801960000001,300.0,450.880196,1043.6654387,840.0,203.66543869999998,24.0,12.0,12.0,128.0,96.0,32.0,30.0,20.0,10.0,4.313028996352552,0.20794866823515631,1.2198791934558841,0.048737969117614764,2.0,5.0,7.0,13.0,1.0,14.0,0.0,1030.0,186.0,190.0,49.0,214.0,32.0,0.0,44.0,1.0,151.0,105.0,37.0,10.0,0.14130620202266359,0.1482880467893262,5.729888885503705,0.41040871435457044,2.0153045654296875,5.5162200927734375,5.7676239013671875,6.00146484375,7.266845703125,0.13155943654483973,0.10986759104245916,1.525878906338818e-05,0.05058288574218839,0.109100341796875,0.1875801086425779,2.875030517578125,0.7328105113095442,1.4029070777037045,0.0,0.2069690900964059,0.36550056311778445,0.6561634030014192,30.05341304818792,77.31958534831847,96.84481355065822,117.18748079147505,20.468662546979594,6.964284170432081
MTYH,reptile_gila,baseline,,,,,,,,,,,,,,,,,,,,,,,,,,,,,,,,,,,,,,,,,,,,0.2297773654916512,0.287012987012987,4.07992074548748,0.4499340323655782,1.867279052734375,3.731954574584961,4.049358367919922,4.36192512512207,6.42755126953125,0.24066934200773585,0.1107425065291311,0.0001068115234375,0.1658744812011721,0.23213195800781317,0.3037490844726567,2.2289581298828125,0.8466442208394033,1.9750884724621929,0.0029344517652103858,0.16940585398965635,0.3097451846639512,0.5870394702688333,32.59144055750288,72.11538312747284,95.13355975788956,118.11026016728728,20.2746724407773,6.888038665793321
MTYH,reptile_gila,block_01,2024-02-21,ab54cf6b-4602-187d-4dbf-308f2571bdbb,2024-02-21 11:04:33.933170-05:00,2024-02-21 11:14:51.559857-05:00,1185.0,1185.0,0.0,650.213622,270.0,380.213622,24.0,24.0,0.0,213.0,213.0,0.0,79.0,79.0,0.0,5.173027764585568,0.34486851763903786,1.9186347108087318,0.12790898072058213,12.0,0.0,12.0,3.0,1.0,4.0,0.0,1170.0,176.0,307.0,54.0,315.0,23.0,0.0,0.0,0.0,53.0,150.0,74.0,2.0,0.1156601009278854,0.11027650519755354,4.447640871437435,0.3279768614877868,1.5722808837890625,4.23199462890625,4.4371337890625,4.674224853515625,6.3524017333984375,0.17980898632407666,0.07691494160111598,1.52587890625e-05,0.13140869140625,0.1804580688476567,0.22697448730468728,2.1101531982421875,0.6359884812833421,1.6177721245804233,0.0013774308593391524,0.15050765146661216,0.26129199886755483,0.45827427871612586,36.62367209198904,87.71926571287652,114.45979681217146,142.85727909646084,13.08334176268078,7.078350050859015
MTYH,reptile_gila,block_02,2024-02-21,69d133a0-4a25-7ea2-81fb-2883be8d8185,2024-02-21 11:20:37.724183-05:00,2024-02-21 11:30:54.977712-05:00,1301.0873464000001,1125.0,176.08734640000003,302.04389000000003,180.0,122.04389,26.0,21.0,5.0,259.0,252.0,7.0,78.0,75.0,3.0,6.679760567881663,0.4196006791886645,2.107865383139835,0.12636622770932754,8.0,1.0,9.0,0.0,0.0,0.0,0.0,1199.0,178.0,320.0,57.0,290.0,54.0,26.0,0.0,0.0,89.0,101.0,74.0,1.0,0.14438771925716026,0.14236200557363995,4.694709295742993,0.29738797515101845,1.8441314697265625,4.512809753417969,4.701499938964844,4.8791046142578125,5.63995361328125,0.10503338233360097,0.06958793899939428,0.0,0.0561676025390625,0.0998611450195308,0.1434173583984375,1.7392730712890625,0.6482507737937981,1.5688742214593163,0.0014747119484178981,0.15996292703380294,0.27598833891485064,0.4831716103591593,38.34709095358415,93.16769413712473,112.49446633894227,130.43490700111641,13.54296501013646,7.044198840288026
MTYH,reptile_gila,block_03,2024-02-21,3ff660ba-4d88-cf89-379c-6fa45712769a,2024-02-21 11:34:24.978245-05:00,2024-02-21 11:44:41.321190-05:00,1285.30760449,1095.0,190.30760449,439.58110750000003,270.0,169.58110749999997,30.0,26.0,4.0,270.0,256.0,14.0,78.0,73.0,5.0,6.891098627031417,0.43806780330713446,2.0853773291588498,0.12655292095539442,5.0,0.0,5.0,0.0,0.0,0.0,0.0,1050.0,140.0,280.0,71.0,243.0,40.0,12.0,0.0,0.0,113.0,81.0,64.0,3.0,0.13020288121230247,0.1261651961517372,4.474621631562713,0.2953112085697701,1.814483642578125,4.282447814941406,4.483543395996094,4.66486930847168,5.747528076171875,0.20494536891370463,0.08100397454151989,0.0,0.15159988403320312,0.205902099609375,0.25657653808593817,1.8442840576171875,0.6391950624743186,1.464738774269168,0.0031678152173872714,0.16500689846892075,0.2874025698673813,0.5069490197952999,38.45794892969546,90.36144111097308,110.30927708075848,129.31034854844702,14.968923730937108,6.9843150305440265
MTYH,reptile_gila,block_04,2024-02-21,87069e81-4953-3251-444b-88a144ec20b5,2024-02-21 11:48:22.906621-05:00,2024-02-21 11:58:38.671666-05:00,1628.204248,1290.0,338.204248,960.0075019999999,465.0,495.007502,33.0,29.0,4.0,289.0,278.0,11.0,91.0,86.0,5.0,7.811797027874488,0.46933485807074354,2.644197265208518,0.14778364043058015,17.0,2.0,19.0,3.0,3.0,6.0,0.0,1021.0,157.0,264.0,49.0,206.0,53.0,15.0,0.0,0.0,95.0,98.0,69.0,5.0,0.11557927440368812,0.11274804570054119,4.510994767532479,0.3070534469509453,1.6936187744140625,4.328044891357422,4.523468017578125,4.711753845214844,5.7911834716796875,0.1639103246515687,0.07891240501527662,4.57763671875e-05,0.110931396484375,0.164154052734375,0.2135009765625,1.845672607421875,0.6394646495020708,1.5193226363834837,0.001408157762757455,0.1563829317527025,0.27297656663917186,0.4794321316369509,29.519918610767316,93.74998463318003,116.69252190944079,138.88891403077037,12.986785881721527,6.753028088881409
NMBV,reptile_gila,baseline,,,,,,,,,,,,,,,,,,,,,,,,,,,,,,,,,,,,,,,,,,,,0.0891354622841116,0.08748708359986222,3.844164740936015,0.2322327642041559,1.1981964111328125,3.723247528076172,3.8616867065429688,3.9840412139892583,5.687057495117188,0.40326537719480043,0.12492242641674461,0.000152587890625,0.319976806640625,0.3944854736328116,0.47630310058593706,1.7791137695312509,0.6668346253293145,1.7645933755641288,0.0025803463268780497,0.181384126606945,0.3143716721140834,0.5317812881830155,76.27376981471387,99.33773328701803,107.67542311360276,115.38461961689801,7.1174009055643745,6.949578358404031
NMBV,reptile_gila,block_01,2024-03-14,,,,,,,,,,,,,,,,,,,,,,,,,,,,,,,,,,,,,,,,,,,0.048372323307340016,0.051367743532615424,4.361731267756397,0.3149879611865172,1.7775421142578125,4.156173706054688,4.367767333984375,4.587669372558594,5.324714660644531,0.38054450913500526,0.08849109514562697,9.1552734375e-05,0.333251953125,0.38731384277343794,0.4359130859375,1.7705230712890625,0.7908745708726878,5.0135569986464645,0.0015698455713725253,0.25117606533332426,0.4219814362642931,0.6751974783083671,685.0221551857089,105.63378827341738,123.84767096095372,141.50950525870678,6.3839590784292435,7.033726796171459
NMBV,reptile_gila,block_02,2024-03-14,,,,,,,,,,,,,,,,,,,,,,,,,,,,,,,,,,,,,,,,,,,0.02878315321196296,0.03128551050506516,4.436372172431165,0.32070983831021216,2.1963653564453125,4.224824905395508,4.429843902587891,4.650505065917969,5.306854248046875,0.4240995722317896,0.07956748864968406,0.0001068115234375,0.3811264038085942,0.4287109375,0.471405029296875,1.9897003173828125,0.7867292484666905,1.5138050550801756,0.002476960767249616,0.2631426798757265,0.44020277021596466,0.7053531042817712,42.285013414186814,97.40256965613548,110.07006368884267,121.95125307896842,9.847223520299352,7.154458319130899
NMBV,reptile_gila,block_03,2024-03-14,,,,,,,,,,,,,,,,,,,,,,,,,,,,,,,,,,,,,,,,,,,0.02761095824859433,0.02837660007177892,4.2247252770288695,0.30021778438472035,1.4397430419921875,4.0086517333984375,4.222381591796875,4.442758560180664,5.0242767333984375,0.3315613103017808,0.07883056231832727,0.0034027099609375,0.2789497375488279,0.3300628662109377,0.38124847412109375,1.7673187255859375,0.8070904178244087,1.6744273322004302,0.0014031588471372627,0.2534366207875371,0.4254623019074698,0.6929043538375768,95.56691981298275,89.28566005362995,103.4018147395321,115.38467252045702,13.846340434837286,7.221822535013175
NMBV,reptile_gila,block_04,2024-03-14,,,,,,,,,,,,,,,,,,,,,,,,,,,,,,,,,,,,,,,,,,,0.024876465458773374,0.027129154151729482,4.226601587861619,0.27861374542162737,1.3580322265625,4.055507659912109,4.2291717529296875,4.4084014892578125,5.1696624755859375,0.37538826679230597,0.07893543295567079,0.0173797607421875,0.3283538818359375,0.3764801025390625,0.42443847656250044,2.889984130859375,0.7423168543380523,1.4391359757399418,0.0011696395685218256,0.2450473200931321,0.4128309917613484,0.6666166905511874,31.17348220879828,86.70518343239301,100.66687928687169,113.63638990838945,16.497677358975857,7.13411664295168
OPKJ,mammal_thylacine,baseline,,,,,,,,,,,,,,,,,,,,,,,,,,,,,,,,,,,,,,,,,,,,0.05187826436319807,0.0657392527119325,4.98212602896207,0.3843647899923003,1.6387939453125,4.778553009033203,5.0504913330078125,5.242275238037109,5.818046569824219,0.17951115210107493,0.11550823248898459,1.52587890625e-05,0.095947265625,0.161834716796875,0.2421112060546875,1.7824554443359384,1.079777303920278,4.013746137502985,0.0014345724726661643,0.26715276144872724,0.5429417589907057,1.135115501290617,458.70740327182364,58.139531230290615,65.75930872124073,75.00000447034863,26.699878365063295,7.784503376481158
OPKJ,mammal_thylacine,block_01,2024-03-26,,,,,,,,,,,,,,,,,,,,,,,,,,,,,,,,,,,,,,,,,,,0.031136017778207202,0.03584627648010821,5.586841450964454,0.3287609856316253,2.0041046142578125,5.389532089233398,5.640064239501953,5.820108413696289,6.315521240234375,0.09336819145417236,0.09349857298410306,0.0,0.03367233276367121,0.07087707519531161,0.1273689270019529,1.6378021240234366,0.7837334727912244,1.4489066829813921,0.0022636017191521463,0.2259910684549605,0.40773542288210035,0.7510717036580209,66.35924507981959,57.4712561779863,70.82582754414213,88.75738092299011,31.59270580220982,8.195261964397444
OPKJ,mammal_thylacine,block_02,2024-03-26,,,,,,,,,,,,,,,,,,,,,,,,,,,,,,,,,,,,,,,,,,,0.03787878787878788,0.037082609534838835,5.650176601851103,0.3437508856561282,1.7056427001953125,5.479339599609375,5.6997833251953125,5.888238906860352,6.750167846679688,0.11091101650483173,0.09783325652550968,1.5258789061611822e-05,0.043136596679688166,0.0899200439453125,0.15264892578125,2.313201904296875,0.7133295362870736,1.297638680702271,0.0010930365397041567,0.209508832867845,0.3765289292686348,0.6824505554465867,40.05308244585347,59.52380152696672,74.42839155004727,90.36147355653485,30.940226414222845,8.232827751874188
OPKJ,mammal_thylacine,block_03,2024-03-26,,,,,,,,,,,,,,,,,,,,,,,,,,,,,,,,,,,,,,,,,,,0.04190165350740359,0.04473349492428424,5.515085416601895,0.34393143519939223,1.333526611328125,5.3282470703125,5.573127746582031,5.746726989746094,6.81024169921875,0.11913028951313342,0.11226134635898508,0.0,0.04537963867187589,0.0957183837890625,0.1627044677734375,2.6588592529296884,0.6809070205059923,1.7240184755256456,0.0012047345798964916,0.19176778244950324,0.34318963202187586,0.6187319910115507,207.73913365426472,57.69229658256835,73.31329542609697,89.82039364778424,33.120167112283646,8.050060055565876
OPKJ,mammal_thylacine,block_04,2024-03-26,,,,,,,,,,,,,,,,,,,,,,,,,,,,,,,,,,,,,,,,,,,0.054467237021193854,0.058258798366712036,5.59389317389786,0.3313160036251379,1.53228759765625,5.430580139160156,5.641517639160156,5.8108673095703125,7.7741546630859375,0.15179166685747605,0.11509917897139545,1.52587890625e-05,0.0732574462890625,0.1378631591796884,0.2073974609375,3.395111083984375,0.7017599306183746,1.548572980191133,0.0005919335697484235,0.20363720680235503,0.3688488134607193,0.6607454856302284,159.6408537659949,58.139531230290615,75.84688390206695,97.40260735513651,28.73599134857209,8.063666337187495
PKJH,reptile_gila,baseline,,,,,,,,,,,,,,,,,,,,,,,,,,,,,,,,,,,,,,,,,,,,0.1193994166308038,0.10342848945631904,4.926634405698133,0.428089575345921,1.75750732421875,4.604059219360352,4.914646148681641,5.205373764038086,6.628021240234375,0.15359546010692357,0.09390696714576934,4.57763671875e-05,0.0945777893066404,0.14409637451171875,0.1977386474609375,1.3046722412109375,0.8861067005439823,3.8179296163206797,0.0015547090127703987,0.16493761589974876,0.30151514171563043,0.568378451127625,293.571427701412,74.25741767920783,92.49477359143314,107.14286809065015,23.15093762565431,8.600121574632551
PKJH,reptile_gila,block_01,2024-02-29,c5bb93cd-4cce-11d8-6d58-2e9e469acb71,2024-02-29 13:58:29.569453-05:00,2024-02-29 14:09:14.265674-05:00,1089.107487,900.0,189.107487,957.913214,570.0,387.913214,32.0,24.0,8.0,177.0,163.0,14.0,65.0,60.0,5.0,4.556625538991642,0.27454790990623784,1.6893343741191247,0.10082267877912689,1.0,0.0,1.0,1.0,1.0,2.0,0.0,1348.0,175.0,264.0,57.0,366.0,39.0,0.0,32.0,13.0,119.0,163.0,71.0,16.0,0.06310610551274452,0.06733847065797273,5.481190825491788,0.43378401447116105,1.3706207275390625,5.209194183349609,5.4869842529296875,5.780067443847657,7.407196044921875,0.09431336611898901,0.07432774145513324,0.0,0.0413055419921875,0.082427978515625,0.13291168212890625,1.4017944335937491,0.7747450196450636,1.7677587854595398,0.0012918265931830528,0.20813514932458446,0.3573644486762737,0.6127974361637163,99.78035362126899,78.53401317980097,98.51089332907104,116.27911618751907,25.86342888711665,8.858083864603039
PKJH,reptile_gila,block_02,2024-02-29,719e2eb0-4197-b167-41f9-8db24f75b605,2024-02-29 14:15:19.896452-05:00,2024-02-29 14:25:38.599553-05:00,1397.885931,570.0,827.8859309999998,801.524982,540.0,261.524982,30.0,17.0,13.0,166.0,147.0,19.0,50.0,38.0,12.0,5.373532824753048,0.2683031646870637,2.259380838306159,0.08081420623104328,3.0,0.0,3.0,3.0,2.0,5.0,0.0,1222.0,172.0,333.0,71.0,310.0,38.0,0.0,29.0,6.0,59.0,132.0,46.0,22.0,0.12380744885790294,0.14361067791945692,5.516553723096182,0.43344715670317113,1.283050537109375,5.239353179931641,5.532806396484375,5.804401397705078,8.250076293945312,0.11866580554022305,0.08574336256947455,0.0,0.055782318115234375,0.10671234130859375,0.1633453369140625,1.6832122802734375,0.830924982879428,1.5180293424625515,0.0020431658536056363,0.24027731919337333,0.4286750795952126,0.7804298521659794,38.899572872818666,71.77033787564474,99.15807675577754,126.05046461586547,29.186964341740584,8.858293253673427
PKJH,reptile_gila,block_03,2024-02-29,f85b8323-4ca7-ee3c-bb78-94b36cadb805,2024-02-29 14:30:09.862440-05:00,2024-02-29 14:40:26.996906-05:00,1553.2896622,975.0,578.2896622,788.064482,450.0,338.06448200000005,29.0,18.0,11.0,211.0,179.0,32.0,78.0,65.0,13.0,6.466025287429012,0.34190279691816794,2.5169387674419728,0.12639060739155022,5.0,1.0,6.0,1.0,1.0,2.0,0.0,1384.0,188.0,315.0,79.0,394.0,75.0,0.0,34.0,6.0,69.0,139.0,64.0,21.0,0.20616069337081283,0.24267978449285546,5.498098614647633,0.5248672884108885,1.59747314453125,5.205814361572266,5.537910461425781,5.866907119750977,8.387741088867188,0.10073985177736679,0.08273102621511345,0.0,0.039733886718749334,0.08284759521484375,0.1401519775390625,1.6148834228515625,0.9044993708116992,1.7535761367126441,0.0034653418154189097,0.2617159411258287,0.4815258456913498,0.9304505674368051,149.21957007801677,78.53401317980097,100.7508460196985,120.0,23.19829057623761,8.82718706236796
PKJH,reptile_gila,block_04,2024-02-29,0538e108-4c09-5ff7-ab2b-959e4a36ad6b,2024-02-29 14:44:56.836748-05:00,2024-02-29 14:55:13.438114-05:00,976.32373413,585.0,391.32373413000005,918.037361,675.0,243.03736099999998,33.0,24.0,9.0,261.0,244.0,17.0,48.0,39.0,9.0,7.089746256627657,0.42328806647502626,1.5833953474082962,0.07784608119080944,2.0,0.0,2.0,3.0,0.0,3.0,0.0,1366.0,187.0,392.0,65.0,265.0,60.0,0.0,34.0,0.0,95.0,148.0,92.0,24.0,0.2755055202570483,0.3023216485879255,5.587916704044517,0.476892458736264,1.3260650634765625,5.30718994140625,5.578575134277344,5.911417007446289,8.898391723632812,0.1204352985548282,0.0975685816787127,0.0,0.05038070678710871,0.1006240844726558,0.1667518615722654,2.2837371826171875,0.924045545367192,1.4728661157732665,0.003326298224745606,0.27302064629930856,0.5019403051567991,0.9873807489056018,31.639893699266466,85.22727318908558,104.74095584095541,121.95125307896842,17.559154868132822,8.518550672861409
QAXY,mammal_thylacine,baseline,,,,,,,,,,,,,,,,,,,,,,,,,,,,,,,,,,,,,,,,,,,,0.06696346612814394,0.06526528364237195,4.2845188202273095,0.33215288905380286,1.8207244873046875,4.04150390625,4.304107666015625,4.5368499755859375,5.5387725830078125,0.164741596486249,0.08530958269451909,0.0,0.10579681396484397,0.1583709716796875,0.21466064453125,2.4964141845703125,0.7275894549849623,1.92692689871973,0.0019294382672917702,0.19741376065808827,0.35967587042798815,0.6474027114249463,114.163212964562,56.818169297925174,69.63491517924776,83.33333002196431,54.803643137430626,8.155443881688235
