Subject_id,Computer_name,Block_type,Date,Session_id,Match_start,Match_end,screenshot_kill,screenshot_death,Total_damage_deal,Gun_damage_deal,Rocket_damage_deal,Total_damage_taken,Gun_damage_taken,Rocket_damage_taken,Total_engage,Gun_engage,Rocket_engage,Total_shot_all,Gun_shot_all,Rocket_shot_all,Total_shot_hit,Gun_shot_hit,Rocket_shot_hit,Damager_per_Second_all,Shot_per_Second_all,Damager_per_Second_Hit_only,Shot_per_Second_Hit_only,Gun_kill,Rocket_kill,Total_kill,Death_by_gun,Death_by_rocket,Total_Death,Self_kill,Total_key_pressed,W_key,A_key,S_key,D_key,R_key,Q_key,MouseScrollDown,MouseScrollUp,SpaceBar,LeftMouseButton,RightMouseButton,Tab_key,Percent_of_Null_in_Pupil,Percent_of_Null_in_Gaze,Pupil_Average_mean,Pupil_Average_std,Pupil_Average_min,Pupil_Average_25th,Pupil_Average_50th,Pupil_Average_75th,Pupil_Average_max,Pupil_difference_mean,Pupil_difference_std,Pupil_difference_min,Pupil_difference_25th,Pupil_difference_50th,Pupil_difference_75th,Pupil_difference_max,Gaze_velocity_mean,Gaze_velocity_std,Gaze_velocity_min,Gaze_velocity_25th,Gaze_velocity_50th,Gaze_velocity_75th,Gaze_velocity_max,Heart_rate_min,Heart_rate_mean,Heart_rate_max,Heart_rate_variability,ECG_signal_to_noise
BVCX,mammal_panda,baseline,,,,,,,,,,,,,,,,,,,,,,,,,,,,,,,,,,,,,,,,,,,,,,0.078449226,0.096563953,2.994126549,0.239635143,1.247558594,2.831596375,2.975559235,3.145214081,3.926986694,0.118011181,0.082431393,1.53E-05,0.063884735,0.108337402,0.153095245,1.101898193,0.575337415,0.906144434,0.003154764,0.162080271,0.313574031,0.642311871,28.81030368,57.25190308,61.93569616,67.87329833,23.52573947,10.26762806
BVCX,mammal_panda,block_01,4/16/2024,1263e8ef-4b1f-9a88-a07b-85971cac44ab,2024-04-16 10:57:55.237102-04:00,2024-04-16 11:08:10.982526-04:00,2,11,210,210,0,729.1928016,615,114.1928016,17,17,0,141,141,0,14,14,0,3.434861093,0.22899074,0.341050038,0.022736669,2,0,2,10,1,11,0,473,128,143,5,84,2,0,0,0,41,61,4,0,0.089760887,0.098868151,3.942543302,0.341162178,1.753295898,3.713953018,3.926895142,4.16926384,5.701934814,0.236663146,0.079815485,4.58E-05,0.189086914,0.233840942,0.277786255,1.88192749,0.645541278,1.484961471,0.000929236,0.147554303,0.255424894,0.446079268,46.69881707,20.21563549,69.10618386,124.9999329,75.41342964,10.1964218
BVCX,mammal_panda,block_02,4/16/2024,6ee85647-4297-186c-24fa-c4970441459c,2024-04-16 11:12:32.018475-04:00,2024-04-16 11:22:47.387228-04:00,3,21,450,450,0,1583.916572,1020,563.916572,18,18,0,99,99,0,30,30,0,2.413187203,0.160879147,0.73126885,0.048751257,3,0,3,16,5,21,0,450,105,72,2,114,0,0,0,0,38,64,51,0,0.17851036,0.207428083,3.866137823,0.368854666,1.699829102,3.612792969,3.847343445,4.11933136,4.987884521,0.225633392,0.081703042,9.16E-05,0.17704773,0.225326538,0.2709198,2.246032715,0.646348195,1.642341162,0.000847527,0.140303981,0.238390271,0.41569504,68.1543939,57.4712693,67.61706492,96.15387172,78.94275082,10.21765409
BVCX,mammal_panda,block_03,4/16/2024,b8103d26-48b2-edb7-9cf6-febff2e0b27b,2024-04-16 11:27:04.499339-04:00,2024-04-16 11:37:19.733358-04:00,2,16,525,525,0,1035.726212,870,165.726212,29,29,0,173,173,0,35,35,0,4.217907203,0.281193814,0.853333827,0.056888922,2,0,2,15,1,16,0,460,81,112,5,78,1,4,0,0,39,87,51,0,0.050896183,0.05799565,3.852902533,0.395646149,2.433792114,3.561794281,3.819503784,4.112056732,5.14944458,0.216701848,0.070513087,4.58E-05,0.173110962,0.21472168,0.261383057,1.29914856,0.613583468,1.632464031,0.000446912,0.142126381,0.238045728,0.406623552,100.1670991,57.25190308,66.44092739,77.72019977,26.19035807,10.44556358
BVCX,mammal_panda,block_04,4/16/2024,7dcb719f-46a8-2478-bac5-4da70d64241f,2024-04-16 11:41:35.548627-04:00,2024-04-16 11:51:51.212965-04:00,4,13,465.836047,90,375.836047,1045.448052,540,505.4480523,13,8,5,60,49,11,11,6,5,2.192780247,0.097455702,0.756639646,0.017866879,0,4,4,8,5,13,0,453,107,49,0,143,0,34,0,0,40,54,24,0,0.061713065,0.065661708,3.730518374,0.37106993,1.647567749,3.474380493,3.691291809,3.966377258,4.857772827,0.211822752,0.065569332,0.000305176,0.172729492,0.21031189,0.249755859,1.90423584,0.65473527,1.631755373,0.001253578,0.151180135,0.250532744,0.418553013,50.99906301,59.76095924,67.91491661,86.2069138,25.18581696,10.52024803
CVBN,reptile_komodo,baseline,,,,,,,,,,,,,,,,,,,,,,,,,,,,,,,,,,,,,,,,,,,,,,0.064706425,0.068255139,4.005236776,0.206758145,1.528182983,3.872772217,3.979904175,4.139350891,4.862670898,0.078331964,0.072889904,4.58E-05,0.034843445,0.067092896,0.102920532,1.73928833,0.467870095,1.415900127,0.000931349,0.124773049,0.217616748,0.376838071,109.2918265,95.54136181,115.6840628,135.1351334,11.73528923,6.571523888
CVBN,reptile_komodo,block_01,4/9/2024,81378b98-41c5-d358-1442-72be5ced37bb,2024-04-09 15:25:24.122564-04:00,2024-04-09 15:35:39.881001-04:00,9,3,585,585,0,249.232862,150,99.23286195,16,15,1,138,137,1,39,39,0,3.413466278,0.22411386,0.950047884,0.063336526,9,0,9,2,1,3,0,950,169,254,54,318,22,0,4,2,36,37,45,0,0.023452888,0.024607903,4.854909713,0.412172399,1.543685913,4.670864105,4.919708252,5.141973495,6.002365112,0.139848522,0.092021146,1.53E-05,0.065132141,0.131286621,0.20362854,1.482192993,0.645764989,1.306605469,0.001282797,0.180253714,0.314623538,0.54593746,42.74553545,129.3103485,159.5507592,174.4186743,3.678264838,5.62325979
CVBN,reptile_komodo,block_02,4/9/2024,ca5139a6-4482-929d-9f37-54910b13f6a3,2024-04-09 15:41:12.594259-04:00,2024-04-09 15:51:28.226923-04:00,,,1268.983938,885,383.9839378,535.513111,120,415.513111,27,20,7,230,219,11,65,59,6,6.385861185,0.37359941,2.061268045,0.105582442,14,4,18,1,5,6,0,965,155,320,38,224,21,0,19,0,52,70,62,0,0.038080937,0.039853289,5.016942605,0.381302252,1.645370483,4.785804749,5.046913147,5.271842957,6.288017273,0.083268959,0.069854616,0,0.031524658,0.068939209,0.117034912,1.454727173,0.61066142,1.787512387,0.001458147,0.176255026,0.30522358,0.517988709,239.5605352,133.9285138,153.5284693,168.5393511,3.969060982,5.761500981
CVBN,reptile_komodo,block_03,4/9/2024,b2c14a1f-48d5-3766-86db-52b27a73b13b,2024-04-09 15:57:50.375414-04:00,2024-04-09 16:08:05.546501-04:00,15,8,1280.897562,660,620.8975615,658.2168858,150,508.2168858,31,20,11,162,140,22,57,44,13,4.931016108,0.263341375,2.08218102,0.092657151,9,6,15,2,6,8,0,1008,129,237,47,329,15,0,19,0,73,87,69,0,0.030859551,0.031511867,5.083938324,0.406219922,2.64263916,4.85760498,5.120147705,5.355041504,6.303985596,0.071829554,0.058922369,0,0.02772522,0.059432983,0.10294342,1.204101563,0.584471184,1.193548606,0.001764826,0.178605249,0.307199853,0.517672077,69.0230629,130.4347718,147.9884127,163.0435704,4.535738888,5.710494779
CVBN,reptile_komodo,block_04,4/9/2024,4f300843-434e-188e-ca63-70a6fceb8f72,2024-04-09 16:13:54.698624-04:00,2024-04-09 16:24:09.941301-04:00,20,5,1403.93456,525,878.93456,463.201236,210,253.201236,24,11,13,153,127,26,50,35,15,5.347607955,0.248682359,2.281919985,0.081268745,9,11,20,3,2,5,0,968,136,251,41,242,20,0,20,0,126,88,42,0,0.042875612,0.051092713,5.342546924,0.354908564,2.353424072,5.114830017,5.361480713,5.589717865,6.344581604,0.091123858,0.071958642,0,0.035903931,0.075622559,0.130325317,0.940444946,0.631175842,1.268083299,0.002026686,0.188766383,0.320258171,0.538978357,27.07813424,122.9508408,141.7217776,157.8947884,5.780730425,5.805170189
DFGH,reptile_gila,baseline,,,,,,,,,,,,,,,,,,,,,,,,,,,,,,,,,,,,,,,,,,,,,,0.039171443,0.03953247,3.91787346,0.417397947,1.65322876,3.627243042,3.863128662,4.195671082,5.397872925,0.074093263,0.070607845,1.53E-05,0.0311203,0.062438965,0.100326538,2.115524292,0.492499455,1.286300963,0.001183342,0.130064065,0.223602591,0.377536995,53.15163016,71.77033788,86.31722514,100.6711483,26.73859521,5.408979084
DFGH,reptile_gila,block_01,4/9/2024,81378b98-41c5-d358-1442-72be5ced37bb,2024-04-09 15:25:24.122564-04:00,2024-04-09 15:35:39.881001-04:00,3,3,180,180,0,277.77572,135,142.77572,7,7,0,66,66,0,12,12,0,1.607773342,0.10718489,0.292322426,0.019488162,3,0,3,1,2,3,0,628,124,143,64,155,2,4,0,0,23,63,14,0,0.048968044,0.050600728,5.129340371,0.375616841,1.881652832,4.957090378,5.1929245,5.387554169,6.914352417,0.308042641,0.115442587,0,0.241004944,0.311737061,0.38205719,1.591430664,0.918520838,51.70556513,0.001810439,0.165003252,0.281922997,0.482311469,10006.1234,86.70515356,115.7293135,142.8572791,14.7333829,5.470702858
DFGH,reptile_gila,block_02,4/9/2024,ca5139a6-4482-929d-9f37-54910b13f6a3,2024-04-09 15:41:12.594259-04:00,2024-04-09 15:51:28.226923-04:00,,,795,795,0,367.562972,240,127.562972,21,21,0,165,165,0,53,53,0,4.02025452,0.268016968,1.291354482,0.086090299,10,0,10,3,2,5,0,649,110,143,52,98,0,6,0,0,19,166,48,1,0.113680058,0.163666325,5.089235145,0.342803532,2.129165649,4.862724304,5.070922852,5.328308105,6.966705322,0.317649845,0.106582255,4.58E-05,0.251197815,0.322616577,0.38898468,2.042892456,0.576823951,1.894391554,0.001224128,0.16880376,0.285793192,0.481174913,219.1555505,87.71926571,117.5772584,142.857198,14.66298951,5.582298005
DFGH,reptile_gila,block_03,4/9/2024,b2c14a1f-48d5-3766-86db-52b27a73b13b,2024-04-09 15:57:50.375414-04:00,2024-04-09 16:08:05.546501-04:00,9,6,789.199147,300,489.199147,479.776484,195,284.776484,16,6,10,56,41,15,27,20,7,2.532478219,0.091031586,1.282893757,0.043890229,4,5,9,2,4,6,0,476,105,92,38,101,2,0,7,1,23,77,29,0,0.062386291,0.065447214,4.913514149,0.391459931,1.520629883,4.744750977,4.968223572,5.17301178,6.507141113,0.330912064,0.103937516,0.00012207,0.267654419,0.334762573,0.397068024,1.637832642,0.638987317,8.90750246,0.00126493,0.155214161,0.268743772,0.459214332,1693.592986,88.75741223,119.2010907,147.0589122,12.46641297,5.579705953
DFGH,reptile_gila,block_04,4/9/2024,4f300843-434e-188e-ca63-70a6fceb8f72,2024-04-09 16:13:54.698624-04:00,2024-04-09 16:24:09.941301-04:00,14,3,1142.063419,645,497.063419,444.755671,150,294.755671,20,12,8,129,112,17,51,43,8,4.154933194,0.209673361,1.856281207,0.08289412,9,5,14,1,2,3,0,651,104,140,61,112,1,0,11,0,66,127,29,0,0.113544655,0.132213525,5.14043573,0.384847112,1.961364746,4.89358902,5.165596008,5.437042236,7.035644531,0.30071015,0.10292452,3.05E-05,0.236152649,0.299057007,0.365257263,1.774688721,0.651553182,1.386385081,0.001168367,0.185219176,0.315340301,0.525023924,30.27776335,87.71929629,119.0472657,147.0588263,12.25551973,5.535602423
DFZX,reptile_gila,baseline,,,,,,,,,,,,,,,,,,,,,,,,,,,,,,,,,,,,,,,,,,,,,,0.133994091,0.143047746,4.196680878,0.394297491,2.044296265,3.955688477,4.20488739,4.435230255,5.62348938,0.085507185,0.087675018,0,0.030426025,0.064666748,0.116073608,1.975341797,1.141306096,2.029240188,0.004454154,0.317149586,0.589847879,1.129310591,83.88804189,83.79887331,94.84391123,108.6956432,16.72046644,9.370724368
DFZX,reptile_gila,block_01,4/9/2024,9e78a544-4fad-2033-7311-4f8a28b2f34f,2024-04-09 12:45:55.566185-04:00,2024-04-09 12:56:11.552493-04:00,12,8,957.2972126,855,102.2972126,608.437396,525,83.437396,26,20,6,187,177,10,59,57,2,5.310045457,0.303578176,1.55408846,0.09578135,11,1,12,7,1,8,0,1052,107,206,39,310,13,44,1,1,80,117,86,0,0.095343279,0.089030514,5.163506415,0.339804682,2.263778687,4.977092743,5.18012619,5.378742218,6.367973328,0.090138135,0.093865023,0,0.03603363,0.076034546,0.122253418,3.777297974,0.896117603,2.056427191,0.003816549,0.237052363,0.408679834,0.699057861,68.02361554,77.3196091,91.61627268,106.3829543,24.0503298,9.40272798
DFZX,reptile_gila,block_02,4/9/2024,505ab3c0-4bfb-f248-a0ff-53be350d22d6,2024-04-09 13:00:27.405583-04:00,2024-04-09 13:10:42.868378-04:00,,,1433.43423,1170,263.43423,716.655472,540,176.655472,30,27,3,201,193,8,83,78,5,5.331241452,0.32658351,2.329034739,0.134857867,18,4,22,7,2,9,0,1071,133,292,48,204,19,48,0,0,109,117,81,7,0.068055964,0.076497109,5.178507096,0.355443366,2.068222046,4.949752808,5.185279846,5.422668457,6.167449951,0.08162961,0.076252014,0,0.029937744,0.067100525,0.117050171,2.105285645,0.743682011,1.752491047,0.002354159,0.198110339,0.340286537,0.576853353,48.58624464,75.37688406,89.15223256,104.1666712,28.24642277,9.355288932
DFZX,reptile_gila,block_03,4/9/2024,e27612de-4620-d131-fe94-1d8df7bf34e9,2024-04-09 13:15:14.374021-04:00,2024-04-09 13:25:29.235641-04:00,20,6,1343.551402,735,608.5514016,576.8775845,180,396.8775845,29,16,13,173,149,24,61,49,12,5.370574611,0.281364122,2.185128097,0.099209315,11,9,20,1,5,6,0,1080,114,236,31,299,21,76,0,0,134,94,62,5,0.034820271,0.034795801,5.129162259,0.34059597,1.474487305,4.913978577,5.121406555,5.34532547,6.248168945,0.105537267,0.089928229,0,0.042999268,0.091552734,0.150802612,2.634963989,0.794734123,1.864470137,0.001740101,0.211670354,0.364998962,0.624545891,45.76024121,77.72019977,89.76511516,102.0408474,25.0736408,9.346829063
DFZX,reptile_gila,block_04,4/9/2024,5d02a094-4bec-a7f8-e7d4-979a9b28ba7c,2024-04-09 13:29:13.404374-04:00,2024-04-09 13:39:30.583512-04:00,20,13,1463.518516,765,698.518516,939.38321,630,309.38321,29,21,8,202,181,21,64,51,13,6.29852093,0.327295574,2.371302635,0.103697608,11,8,19,9,3,12,1,890,88,260,13,145,6,51,0,0,153,92,57,22,0.177060406,0.169805168,4.924769959,0.425963503,1.288482666,4.715387344,4.967987061,5.190443039,6.38760376,0.110272824,0.107545144,0,0.046661377,0.092590332,0.150497437,3.314147949,0.846221534,1.93176409,0.002376289,0.204404297,0.358881435,0.660093257,44.97647272,72.81554443,91.78132205,115.3846196,23.2861697,9.265509684
DKLQ,reptile_komodo,baseline,,,,,,,,,,,,,,,,,,,,,,,,,,,,,,,,,,,,,,,,,,,,,,0.145013311,0.126640046,2.960914413,0.281569655,1.709838867,2.791343689,2.950382233,3.130355835,4.106208801,0.09702352,0.069060587,1.53E-05,0.049003601,0.092254639,0.134002686,2.301177979,0.622389045,11.31328944,0.003971799,0.1727903,0.300802465,0.517109304,1499.404323,66.07929571,78.47476828,99.3377725,39.58447848,6.849604452
DKLQ,reptile_komodo,block_01,3/5/2024,d682ff1b-4c8a-9dae-d9d5-4582be12e778,2024-03-05 13:58:16.141846-05:00,2024-03-05 14:08:31.532598-05:00,6,9,445.149234,330,115.149234,711.733395,510,201.733395,23,15,8,155,142,13,25,22,3,4.346902419,0.251872488,0.723360292,0.040624595,3,1,4,7,1,8,0,1348,216,215,143,240,13,32,0,0,304,144,31,0,0.057029277,0.056454234,4.187202319,0.338493447,2.127410889,3.954515457,4.200630188,4.442235947,5.103797913,0.054687416,0.048226578,0,0.020874023,0.044464111,0.076477051,1.281219482,0.843473877,2.047392107,0.002937783,0.215011467,0.378074092,0.651156049,136.2000666,83.33333002,99.6150585,116.2791162,15.88634362,5.636220545
DKLQ,reptile_komodo,block_02,3/5/2024,a8c25021-42f3-e12a-9934-d48ca28b88aa,2024-03-05 14:12:58.312074-05:00,2024-03-05 14:23:18.954013-05:00,7,16,626.438678,165,461.438678,1060.93859,930,130.93859,22,12,10,96,74,22,20,11,9,3.774023136,0.154678558,1.009339909,0.0322247,1,4,5,11,2,13,0,1134,129,210,92,144,19,50,0,0,265,142,74,0,0.031538386,0.030286668,4.025146859,0.352026848,1.95425415,3.796661377,4.004455566,4.249565125,4.983253479,0.055748425,0.05155961,0,0.020797729,0.043441772,0.075698853,1.678588867,0.768817753,1.90056881,0.00073261,0.203492917,0.355758014,0.615360083,121.543707,72.11538313,88.68558824,105.6338326,28.41880022,5.345238841
DKLQ,reptile_komodo,block_03,3/5/2024,4ca89552-4100-084d-279e-7db3ac4df894,2024-03-05 14:29:03.133666-05:00,2024-03-05 14:39:18.350255-05:00,9,13,993.762283,195,798.762283,1036.735014,645,391.735014,28,19,9,134,108,26,25,13,12,4.620740567,0.217809471,1.615304757,0.040636095,0,5,5,8,3,11,0,1406,144,190,90,221,22,72,0,0,327,209,121,0,0.029606635,0.027582145,4.009277463,0.351176375,1.892333984,3.780059814,4.015342712,4.254177094,5.025344849,0.05266737,0.045884768,0,0.01991272,0.042755127,0.073928833,1.114883423,0.749291997,1.571208397,0.001384748,0.223225221,0.38473092,0.644938554,31.54427454,73.89162232,88.1312748,103.4482895,25.86843984,4.949473175
DKLQ,reptile_komodo,block_04,3/5/2024,f74ac41e-4abb-2c24-95ba-f6bd7a3aa0c5,2024-03-05 14:42:49.125351-05:00,2024-03-05 14:53:04.736432-05:00,6,13,557.187302,165,392.187302,1100.690293,405,695.690293,25,13,12,149,122,27,18,11,7,4.659077397,0.242035929,0.905096284,0.02923924,1,2,3,5,6,11,0,1346,121,219,107,142,49,75,1,0,298,221,109,0,0.018972762,0.018301944,4.027280471,0.357721474,2.03352356,3.769210815,4.001075745,4.277549744,5.144485474,0.068773235,0.048246844,0,0.033081055,0.062850952,0.096466064,1.345123291,0.848131171,1.961834259,0.001958709,0.252925004,0.434209191,0.72597316,149.2837044,70.09346232,82.92961422,97.40260736,31.45387612,5.293263338
EDFR,mammal_panda,baseline,,,,,,,,,,,,,,,,,,,,,,,,,,,,,,,,,,,,,,,,,,,,,,0.044285189,0.043596104,3.965825687,0.406855478,1.803878784,3.695022583,3.999137878,4.286218643,4.921203613,0.221382458,0.077672008,0.000183105,0.170589447,0.218955994,0.270454407,1.425033569,0.681156478,1.737259261,0.001697989,0.169742277,0.30172727,0.541218025,51.5951113,76.92305623,89.07875009,101.35135,17.45136319,6.488454516
EDFR,mammal_panda,block_01,4/9/2024,81378b98-41c5-d358-1442-72be5ced37bb,2024-04-09 15:25:24.122564-04:00,2024-04-09 15:35:39.881001-04:00,0,4,30.90940595,30,0.90940595,240,240,0,7,7,0,39,38,1,3,2,1,0.927164569,0.063336526,0.050197292,0.00487204,0,0,0,4,0,4,0,941,228,219,89,247,10,5,10,1,64,28,23,0,0.075423687,0.076263649,4.398023124,0.373054709,2.017944336,4.164440155,4.416992188,4.644817352,6.374176025,0.239711895,0.080425086,7.63E-05,0.190750122,0.241851807,0.289588928,1.90524292,7.383129415,1221.260422,0.000366402,0.17351409,0.324406819,0.689774292,234631.7935,73.89162232,88.95223603,106.3830442,44.24599811,6.704647178
EDFR,mammal_panda,block_02,4/9/2024,ca5139a6-4482-929d-9f37-54910b13f6a3,2024-04-09 15:41:12.594259-04:00,2024-04-09 15:51:28.226923-04:00,,,344.593351,90,254.593351,960.1057777,660,300.1057777,14,5,9,43,34,9,10,6,4,1.443024972,0.069846846,0.559738577,0.016243453,1,3,4,9,3,12,1,913,227,180,73,261,12,0,10,1,51,47,51,0,0.071967933,0.073402143,4.578802891,0.341713124,1.247177124,4.374572754,4.595237732,4.81555748,5.531234741,0.167815367,0.086904876,0,0.107803345,0.164749146,0.222846985,2.199996948,0.957629444,2.624763462,0.002552617,0.177047331,0.329623823,0.660830883,223.8401479,75.00000447,87.34476703,100.0000159,23.9056194,6.697079161
EDFR,mammal_panda,block_03,4/9/2024,b2c14a1f-48d5-3766-86db-52b27a73b13b,2024-04-09 15:57:50.375414-04:00,2024-04-09 16:08:05.546501-04:00,7,9,587.3806031,75,512.3806031,862.0718676,360,502.0718676,14,5,9,43,29,14,14,5,9,1.83299219,0.069899254,0.954824789,0.022757897,1,6,7,4,5,9,0,999,226,233,102,246,25,0,10,1,30,56,70,0,0.027491323,0.027063736,4.541800366,0.319340412,1.773086548,4.350400925,4.544700623,4.736646652,5.802719116,0.115132118,0.071697599,0,0.061000824,0.11050415,0.160175324,1.349014282,0.912600944,2.880906859,0.000181189,0.169007162,0.316976551,0.625136246,241.3062673,73.52941314,89.72418958,106.3830442,25.00806014,6.805098881
EDFR,mammal_panda,block_04,4/9/2024,4f300843-434e-188e-ca63-70a6fceb8f72,2024-04-09 16:13:54.698624-04:00,2024-04-09 16:24:09.941301-04:00,3,14,219.725411,180,39.725411,1047.006415,435,612.006415,12,7,5,89,80,9,14,12,2,2.316022346,0.144658365,0.357136166,0.022755249,3,0,3,7,7,14,0,987,140,167,35,280,13,0,39,0,146,116,47,0,0.040774248,0.039912029,4.723751596,0.337244927,2.597518921,4.518741608,4.743965149,4.940948486,5.844963074,0.108405,0.073440831,0,0.051391602,0.099578857,0.154045105,1.292404175,0.891465146,2.379250348,0.000811331,0.175580559,0.331593957,0.650130639,213.0735135,73.52941314,88.25361791,104.1666712,23.36225459,6.847657773
FTLD,reptile_gila,baseline,,,,,,,,,,,,,,,,,,,,,,,,,,,,,,,,,,,,,,,,,,,,,,0.202612017,0.178350196,3.985041112,0.356895542,1.215164185,3.763498306,3.96037674,4.247159958,5.88269043,0.102680039,0.146821871,0,0.030982971,0.064575195,0.113773346,2.162094116,1.180662754,2.359300879,0.002633834,0.290696713,0.565449805,1.148650199,52.77645578,1.574307305,56.94248806,106.3829992,5004.055162,8.203543757
FTLD,reptile_gila,block_01,1/31/2024,9d7674db-4299-49f2-09ce-408ffebe1332,2024-01-31 15:06:02.586030-05:00,2024-01-31 15:16:18.587999-05:00,,,1222.665414,720,502.665414,651.635117,420,231.635117,28,17,11,178,165,13,56,48,8,5.146959964,0.288960115,1.984840107,0.0909088,8,7,15,4,1,5,0,1135,121,237,33,268,46,0,39,4,141,73,85,23,0.100060565,0.099280207,4.767059291,0.387257587,1.705245972,4.543521881,4.794963837,5.050764084,5.671859741,0.078952661,0.078551161,1.53E-05,0.031143188,0.063522339,0.108337402,2.270202637,0.846531688,1.659658516,0.000621744,0.20020052,0.361021843,0.680293807,34.313647,41.4364654,88.8404231,109.4890793,560.3682356,8.930705796
FTLD,reptile_gila,block_02,1/31/2024,ff9c203a-415a-f596-d37a-289a55618e1a,2024-01-31 15:20:54.914018-05:00,2024-01-31 15:31:10.212231-05:00,,,1447.240713,975,472.2407129,671.739829,255,416.739829,25,18,7,234,211,23,75,65,10,6.820588244,0.380303396,2.352096402,0.121892114,12,2,14,2,1,3,0,1145,162,286,84,245,48,0,30,6,84,73,89,21,0.128272573,0.122692298,4.870567025,0.429098806,1.304595947,4.626121521,4.929931641,5.160614014,6.220687866,0.093264274,0.084607545,0,0.039520264,0.07913208,0.128047943,2.159912109,0.964966263,1.924387726,0.000717641,0.204552223,0.382189964,0.775571306,90.30928616,43.47825726,89.90652745,118.1102602,679.0212975,9.166938596
FTLD,reptile_gila,block_03,1/31/2024,da70cd6f-44d0-f518-f635-5fa866148670,2024-01-31 15:35:51.706503-05:00,2024-01-31 15:46:07.790447-05:00,13,11,1142.150733,960,182.150733,703.615647,465,238.615647,32,23,9,179,163,16,69,64,5,5.153912459,0.290544822,1.853888166,0.111997725,9,1,10,7,2,9,0,1228,129,294,38,344,40,0,30,2,104,109,90,28,0.153520908,0.150327135,4.526398269,0.417872191,1.157012939,4.258598328,4.532150269,4.806304932,5.5574646,0.091392063,0.08007041,0,0.040653229,0.07976532,0.124038696,3.128753662,0.824108504,1.996155073,0.001049574,0.175964431,0.325195604,0.647727663,125.5327375,42.49291963,86.83054626,107.1428681,482.8225289,9.30155628
FTLD,reptile_gila,block_04,1/31/2024,f8e91c5d-40a0-bbcd-4b3f-869dc7f8073a,2024-01-31 15:49:42.651635-05:00,2024-01-31 16:00:01.232420-05:00,12,,991.225399,735,256.225399,793.9190824,690,103.9190824,32,26,6,199,186,13,54,49,5,5.526142509,0.321704141,1.60241867,0.087296601,7,3,10,8,0,8,0,1307,164,337,62,248,41,0,22,3,88,161,115,38,0.164485853,0.163846453,4.72350809,0.412728008,0.772186279,4.488433838,4.761177063,5.00793457,6.17049408,0.07147795,0.075323438,0,0.027755737,0.057418823,0.095031738,2.359939575,0.766424404,1.614288044,0.001128849,0.169022735,0.307905446,0.60404449,52.45259455,45.87156492,87.11013949,115.3846196,424.6726458,8.755490169
GHJK,reptile_gila,baseline,,,,,,,,,,,,,,,,,,,,,,,,,,,,,,,,,,,,,,,,,,,,,,0.234565863,0.247559308,3.022990633,0.221928285,1.264328003,2.920101166,3.019287109,3.133033752,3.972198486,0.126043302,0.05901848,9.16E-05,0.090301514,0.123245239,0.157398224,0.885040283,1.493597978,37.76188071,0.00527774,0.393510335,0.685565612,1.171410093,4159.964652,76.53059679,88.578432,100.0000159,33.23414647,7.679262347
GHJK,reptile_gila,block_01,3/26/2024,,,,,,,,,,,,,,,,,,,,,,,,,,,,,,,,,,,,,,,,,,,,,0.054935591,0.062298343,3.947423028,0.42327354,1.151779175,3.66560936,3.886543274,4.148694992,5.638511658,0.079626744,0.059899667,0,0.035995483,0.070495605,0.112602234,1.275604248,1.001719053,1.841222224,0.004034224,0.319250309,0.547233638,0.919522071,33.71392051,85.71427988,100.351255,114.5038322,26.75497654,7.906354262
GHJK,reptile_gila,block_02,3/26/2024,,,,12,12,,,,,,,,,,,,,,,,,,,,,,,,,,,,,,,,,,,,,,,,0.116011834,0.081416102,3.919798027,0.421047453,1.066650391,3.641029358,3.864265442,4.168365479,5.341278076,0.063185527,0.058839065,0,0.02394104,0.050994873,0.087356567,1.504699707,0.983945977,1.757374689,0.00094448,0.310588841,0.53956602,0.933419885,42.06737105,83.33333002,100.8271,116.2791162,26.07562493,7.761650858
GHJK,reptile_gila,block_03,3/26/2024,,,,14,9,,,,,,,,,,,,,,,,,,,,,,,,,,,,,,,,,,,,,,,,0.076634183,0.08269717,4.014142136,0.481044585,1.541671753,3.704566956,3.969978333,4.260856628,6.01953125,0.085445161,0.064788953,0,0.0418396,0.078491211,0.117492676,1.353164673,1.050586133,1.931589491,0.002947153,0.328029114,0.565025911,0.97096111,56.31932717,75.37688406,97.4587155,117.1875354,34.82347664,7.709831274
GHJK,reptile_gila,block_04,3/26/2024,,,,15,7,,,,,,,,,,,,,,,,,,,,,,,,,,,,,,,,,,,,,,,,0.094310152,0.105218793,3.880240776,0.471811482,1.88671875,3.581279755,3.814254761,4.105585098,5.797973633,0.087173412,0.065800175,0,0.043197632,0.080673218,0.118717194,1.800689697,0.991968342,1.756378095,0.002933369,0.306855171,0.534086524,0.927385319,30.04915847,79.36507496,96.93663034,113.6363899,33.15046045,7.612196554
GTYU,reptile_komodo,baseline,,,,,,,,,,,,,,,,,,,,,,,,,,,,,,,,,,,,,,,,,,,,,,0.098090061,0.102278961,3.714777261,0.51807182,1.511535645,3.303934097,3.818721771,4.113321304,4.784629822,0.354658916,0.171144653,0.001602173,0.234333038,0.353858948,0.462638855,2.178726196,0.582804194,1.284914646,0.001431737,0.158506649,0.289851211,0.530410793,40.63345754,142.8570358,251.1864251,357.1428936,80.5001837,1.29083215
GTYU,reptile_komodo,block_01,1/31/2024,9d7674db-4299-49f2-09ce-408ffebe1332,2024-01-31 15:06:02.586030-05:00,2024-01-31 15:16:18.587999-05:00,,,415.120176,165,250.120176,579.2257316,360,219.2257316,13,7,6,52,41,11,16,11,5,1.765213975,0.084415315,0.673894236,0.025973943,1,1,2,5,1,6,0,964,172,127,59,170,4,7,41,84,222,36,20,17,0.050895105,0.051894893,4.212208555,0.321557738,1.413314819,4.009513855,4.219848633,4.413993835,5.345535278,0.29678544,0.095660385,1.53E-05,0.241107941,0.298126221,0.353481293,1.614151001,0.773906773,1.535177232,0.001106989,0.209799106,0.368414362,0.625970035,31.62720734,128.2050807,248.9523787,348.8378321,75.71846448,10.94120211
GTYU,reptile_komodo,block_02,1/31/2024,ff9c203a-415a-f596-d37a-289a55618e1a,2024-01-31 15:20:54.914018-05:00,2024-01-31 15:31:10.212231-05:00,,,766.221684,465,301.221684,465.9096124,150,315.9096124,17,11,6,135,124,11,37,31,6,3.792910297,0.219405805,1.245285079,0.060133443,5,1,6,0,1,1,0,999,165,213,60,193,12,0,81,46,134,47,33,13,0.035363777,0.040759101,4.401219037,0.365222507,1.695480347,4.146759033,4.372451782,4.676490784,5.426315308,0.239424668,0.114089425,1.53E-05,0.160858154,0.243804932,0.317993164,2.241043091,0.744369341,1.499776612,0.001616199,0.203795493,0.357767531,0.621692455,57.22776394,55.14705583,88.5832795,123.9669505,1720.906628,9.351132685
GTYU,reptile_komodo,block_03,1/31/2024,da70cd6f-44d0-f518-f635-5fa866148670,2024-01-31 15:35:51.706503-05:00,2024-01-31 15:46:07.790447-05:00,14,,857.5949095,435,422.5949095,452.717952,345,107.717952,24,16,8,113,99,14,37,29,8,3.635634131,0.183416564,1.392009835,0.060056751,4,1,5,1,0,1,0,1065,197,227,92,229,17,0,76,49,77,53,35,12,0.043112084,0.049064604,4.294381898,0.346014245,1.021942139,4.045692444,4.288879395,4.531341553,5.577713013,0.279229218,0.109711401,9.16E-05,0.209896088,0.281593323,0.347930908,2.026153564,0.710729067,1.550571958,0.002060776,0.193191122,0.339378515,0.585414856,113.6237434,63.55932165,85.85410473,111.9403455,37.00874907,9.519264322
GTYU,reptile_komodo,block_04,1/31/2024,f8e91c5d-40a0-bbcd-4b3f-869dc7f8073a,2024-01-31 15:49:42.651635-05:00,2024-01-31 16:00:01.232420-05:00,,,776.298339,570,206.298339,571.5278074,420,151.5278074,24,19,5,184,173,11,41,38,3,5.045518251,0.297455085,1.254966785,0.066280753,7,1,8,4,0,4,0,1122,182,253,88,231,14,0,37,30,78,150,47,12,0.049743973,0.056185555,4.295470143,0.341197599,1.46824646,4.064245224,4.275249481,4.515972137,5.620361328,0.242428763,0.116265728,0,0.165740967,0.24571228,0.317802429,1.841049194,0.693534709,1.43734276,0.001286626,0.195743901,0.346921534,0.606288151,55.04626456,64.93507995,84.86454829,110.2941358,32.88320501,9.420878406
HGFD,mammal_panda,baseline,,,,,,,,,,,,,,,,,,,,,,,,,,,,,,,,,,,,,,,,,,,,,,0.349082935,0.372308612,3.077315076,0.412156278,1.298080444,2.793308258,3.053497314,3.356555939,6.118087769,0.074251872,0.064667857,3.05E-05,0.03364563,0.063140869,0.100479126,1.417022705,0.539116139,1.381524761,0.001869172,0.108957113,0.190637914,0.341946014,18.07765254,68.80734111,76.73752264,84.74576933,13.92857714,11.14349669
HGFD,mammal_panda,block_01,4/9/2024,9e78a544-4fad-2033-7311-4f8a28b2f34f,2024-04-09 12:45:55.566185-04:00,2024-04-09 12:56:11.552493-04:00,3,16,448.8877226,150,298.8877226,1060.729499,765,295.729499,20,13,7,137,123,14,16,10,6,3.790133045,0.222407541,0.728730033,0.025974603,0,3,3,12,4,16,0,546,108,128,13,90,0,28,0,0,47,61,68,0,0.197460938,0.221362305,4.090671026,0.345471991,1.869552612,3.908554077,4.086097717,4.311035156,4.973365784,0.068582668,0.047255509,0,0.031356812,0.061767578,0.097434998,0.649581909,0.737241371,2.24175816,0,0.175307293,0.312712265,0.551953141,91.33405029,76.14212166,87.41989196,98.68424272,14.49094584,11.17268826
HGFD,mammal_panda,block_02,4/9/2024,505ab3c0-4bfb-f248-a0ff-53be350d22d6,2024-04-09 13:00:27.405583-04:00,2024-04-09 13:10:42.868378-04:00,,,490.759699,225,265.759699,1146.781038,690,456.781038,23,17,6,130,117,13,21,15,6,3.800685473,0.211223166,0.79738321,0.034120665,2,3,5,13,5,18,0,754,130,127,25,127,0,30,0,0,114,121,76,3,0.214976976,0.202541309,4.10550416,0.356572708,1.329986572,3.880954742,4.103214264,4.329406738,5.218322754,0.158290962,0.060650512,6.10E-05,0.11977005,0.161010742,0.199859619,1.16847229,0.67373578,3.680853741,0.002497911,0.146821688,0.264840191,0.472323606,417.1216411,70.75471284,82.7607406,95.54139808,16.14124044,11.40498103
HGFD,mammal_panda,block_03,4/9/2024,e27612de-4620-d131-fe94-1d8df7bf34e9,2024-04-09 13:15:14.374021-04:00,2024-04-09 13:25:29.235641-04:00,2,16,229.401666,75,154.401666,1050.89235,705,345.89235,20,12,8,104,91,13,7,5,2,3.505192676,0.16914375,0.373094788,0.011384675,0,2,2,11,4,15,1,887,141,167,27,149,0,33,0,0,113,135,117,0,0.411943817,0.433724585,3.830776514,0.323042213,1.84552002,3.600412369,3.80247879,4.043598175,4.799316406,0.106913169,0.056275439,0,0.066467285,0.102874756,0.142665863,1.01725769,0.257208177,0.418030029,0,0.104330218,0.177235073,0.290201404,18.73653887,28.35538837,84.83242987,161.2903317,72.62587767,10.8483345
HGFD,mammal_panda,block_04,4/9/2024,5d02a094-4bec-a7f8-e7d4-979a9b28ba7c,2024-04-09 13:29:13.404374-04:00,2024-04-09 13:39:30.583512-04:00,5,15,476.264796,90,386.264796,1135.403021,525,610.403021,21,10,11,136,111,25,11,6,5,4.781923671,0.220357416,0.771679998,0.017823026,1,4,5,9,5,14,0,727,99,113,19,138,0,29,0,0,104,127,95,0,0.286822812,0.246861006,3.822609583,0.422675079,1.66645813,3.591819763,3.799209595,4.047454834,5.822547913,0.13418795,0.062810507,1.53E-05,0.090240479,0.136482239,0.177455902,0.689483643,0.72563804,2.079664494,0.000514499,0.157919801,0.293882262,0.558789648,113.5521219,37.22084394,86.17735097,194.8052901,92.44166064,9.310207794
HJKL,mammal_thylacine,baseline,,,,,,,,,,,,,,,,,,,,,,,,,,,,,,,,,,,,,,,,,,,,,,0.419897133,0.42251643,3.768443287,0.318987463,1.487289429,3.557006836,3.778968811,3.996753693,5.039260864,0.137250142,0.084602954,1.53E-05,0.090324402,0.133178711,0.174346924,1.409118652,0.411392784,0.985201283,0.001932183,0.114986309,0.202705441,0.364316829,22.76308998,68.80734111,80.78415527,93.16769414,38.1590312,9.961150974
HJKL,mammal_thylacine,block_01,1/31/2024,9d7674db-4299-49f2-09ce-408ffebe1332,2024-01-31 15:06:02.586030-05:00,2024-01-31 15:16:18.587999-05:00,,,450,450,0,781.436597,420,361.436597,24,24,0,154,154,0,30,30,0,3.749988013,0.249999201,0.730517146,0.048701143,6,0,6,3,4,7,0,772,142,183,65,148,7,2,0,0,32,107,77,4,0.138188509,0.137654321,3.852710209,0.307780747,1.224945068,3.660749435,3.884067535,4.057928085,5.178771973,0.234524347,0.078384382,0.000595093,0.192276001,0.231842041,0.269851685,1.437011719,0.689110357,1.514118116,0,0.163417378,0.283766729,0.510560307,37.69674153,65.78947795,84.32629861,104.8951,31.73326037,9.468657302
HJKL,mammal_thylacine,block_02,1/31/2024,ff9c203a-415a-f596-d37a-289a55618e1a,2024-01-31 15:20:54.914018-05:00,2024-01-31 15:31:10.212231-05:00,,,370.1096314,315,55.1096314,1012.713674,735,277.7136739,21,17,4,175,170,5,23,21,2,4.422003145,0.284414933,0.601512606,0.037380248,2,0,2,11,1,12,0,753,132,188,51,183,13,7,0,0,36,64,75,3,0.151336745,0.151167041,3.833713221,0.331173982,1.063903809,3.613967896,3.834209442,4.059022903,5.635360718,0.221648369,0.07741455,0.000518799,0.178970337,0.218673706,0.259185791,1.606506348,0.630813949,1.548304471,0,0.162468542,0.284469729,0.499460237,139.5579622,64.93507995,83.2591658,103.4482895,32.75182716,9.536858117
HJKL,mammal_thylacine,block_03,1/31/2024,da70cd6f-44d0-f518-f635-5fa866148670,2024-01-31 15:35:51.706503-05:00,2024-01-31 15:46:07.790447-05:00,,,525,525,0,996.1481252,735,261.1481252,27,26,1,176,174,2,35,35,0,4.431322844,0.285675356,0.852156602,0.05681044,6,0,6,10,1,11,0,703,127,218,60,135,18,4,0,0,20,53,65,1,0.091364549,0.091113449,3.794482994,0.274578915,1.377944946,3.624053955,3.811058044,3.973712921,4.819198608,0.221787165,0.067380178,0.000701904,0.187164307,0.22001648,0.252182007,1.819122314,0.695672924,1.46760235,0.00113321,0.17380382,0.30321858,0.543287909,25.54247957,65.21736899,81.48755295,98.68424272,35.19342199,9.590525186
HJKL,mammal_thylacine,block_04,1/31/2024,f8e91c5d-40a0-bbcd-4b3f-869dc7f8073a,2024-01-31 15:49:42.651635-05:00,2024-01-31 16:00:01.232420-05:00,,,465,465,0,767.916592,570,197.916592,18,18,0,138,138,0,31,31,0,3.346369707,0.223091314,0.751720731,0.050114715,3,0,3,5,3,8,0,688,123,153,45,197,10,1,0,0,37,51,69,0,0.081029552,0.082813913,3.795384858,0.314373241,1.388275146,3.576278687,3.813331604,4.02397728,4.934768677,0.192301871,0.072832921,0.000106812,0.154178619,0.191589356,0.22795105,1.613113403,0.665399828,1.446668897,0,0.166568927,0.289917533,0.510274707,26.05642679,62.49998199,78.55733167,96.15387172,36.69792098,9.657943135
HPLX,mammal_thylacine,baseline,,,,,,,,,,,,,,,,,,,,,,,,,,,,,,,,,,,,,,,,,,,,,,0.107638105,0.104250418,3.038128786,0.232178983,1.172851563,2.893119812,3.044895172,3.181610107,4.379592896,0.078190941,0.07094323,1.53E-05,0.032718658,0.066429138,0.105133057,2.100143433,0.748396781,1.464260556,0.000671868,0.207315374,0.35846412,0.617871573,36.39338768,88.23525452,98.10872057,107.9136702,10.54285674,5.842833159
HPLX,mammal_thylacine,block_01,4/9/2024,81378b98-41c5-d358-1442-72be5ced37bb,2024-04-09 15:25:24.122564-04:00,2024-04-09 15:35:39.881001-04:00,6,8,496.099176,255,241.099176,525,525,0,12,9,3,62,58,4,20,17,3,1.834903849,0.100688836,0.805671748,0.03248027,3,3,6,8,0,8,0,847,171,192,105,146,2,8,4,2,76,67,52,0,0.098246851,0.100447406,3.530635046,0.292652126,1.371170044,3.353164673,3.512802124,3.692026138,4.767303467,0.140139888,0.070502829,3.05E-05,0.091033936,0.135284424,0.181427002,1.472427368,0.853897687,1.784492881,0.002093408,0.212533081,0.369398047,0.641536559,56.90531242,83.79887331,93.75275743,103.4482895,10.64811542,6.024381911
HPLX,mammal_thylacine,block_02,4/9/2024,ca5139a6-4482-929d-9f37-54910b13f6a3,2024-04-09 15:41:12.594259-04:00,2024-04-09 15:51:28.226923-04:00,,,558.482732,270,288.482732,1103.87816,1020,83.8781601,17,12,5,83,76,7,23,18,5,2.538529124,0.134820657,0.907168779,0.037359941,3,4,7,15,1,16,0,847,138,134,56,180,4,0,23,6,91,108,78,0,0.119062209,0.12140301,3.725362489,0.344090486,1.615112305,3.498657227,3.691093445,3.9290905,5.011764526,0.16645241,0.073098715,1.53E-05,0.119575501,0.163406372,0.211677551,1.630859375,0.798068746,1.728045136,0.00107408,0.195444076,0.343569273,0.599657732,47.12330765,79.78719883,93.49948783,107.1428681,15.41420747,5.923566627
HPLX,mammal_thylacine,block_03,4/9/2024,b2c14a1f-48d5-3766-86db-52b27a73b13b,2024-04-09 15:57:50.375414-04:00,2024-04-09 16:08:05.546501-04:00,7,15,550.6127667,270,280.6127667,1208.024841,600,608.0248409,20,14,6,118,106,12,26,18,8,3.326978098,0.191816557,0.895056316,0.042264665,3,4,7,9,6,15,0,904,105,204,70,138,3,0,30,0,133,149,57,0,0.099940282,0.10841275,3.676637073,0.413640394,1.068328857,3.418495178,3.642158508,3.88376236,5.388168335,0.134575422,0.07069712,3.05E-05,0.085357666,0.131072998,0.179626465,1.368911743,0.910102487,15.94680463,0.001418354,0.19261696,0.336905225,0.596830773,2939.990337,83.79887331,95.10551689,105.6337883,15.79448484,5.920289516
HPLX,mammal_thylacine,block_04,4/9/2024,4f300843-434e-188e-ca63-70a6fceb8f72,2024-04-09 16:13:54.698624-04:00,2024-04-09 16:24:09.941301-04:00,5,20,688.231496,180,508.231496,1498.991564,735,763.991564,20,10,10,81,65,16,20,12,8,2.940962388,0.131655366,1.118634194,0.032507498,1,4,5,11,9,20,0,745,102,81,40,142,0,0,31,1,105,145,50,0,0.174344067,0.178244882,3.711051174,0.352830566,1.061767578,3.483276367,3.667537689,3.906812668,5.295166016,0.146320798,0.084478849,1.53E-05,0.090297699,0.137840271,0.19084549,1.879928589,0.746985337,1.704731047,0.00130715,0.173032904,0.304877014,0.552012064,68.30541634,81.52173237,94.96876718,107.9136702,15.78755951,5.777963253
JHGF,mammal_panda,baseline,,,,,,,,,,,,,,,,,,,,,,,,,,,,,,,,,,,,,,,,,,,,,,0.555468041,0.495489045,4.27367233,0.601080299,1.195541382,3.993293762,4.467483521,4.682315826,5.68208313,0.211548657,0.276493123,3.05E-05,0.053482056,0.122009277,0.257339478,2.951950073,4.495745058,185.1161261,0,0.408917747,0.880450982,2.046861883,17678.68921,58.5937404,67.34248202,78.12501145,34.01286636,8.583477471
JHGF,mammal_panda,block_01,3/6/2024,85a5023a-4976-0721-23b2-028c85a483dd,2024-03-06 13:26:26.617466-05:00,2024-03-06 13:36:42.000566-05:00,2,10,211.57244,15,196.57244,705.424416,615,90.424416,11,8,3,49,46,3,3,1,2,1.455207694,0.079625196,0.343806062,0.004875012,0,2,2,7,1,8,0,521,158,116,35,87,1,1,9,7,46,57,0,0,0.137728731,0.145604194,4.796161062,0.23293467,1.845840454,4.671468735,4.824577332,4.95362854,5.652862549,0.0752466,0.090845565,0,0.024581909,0.054382324,0.097747803,2.561172485,1.12439044,4.8882895,0.003129222,0.253481535,0.457167792,0.851965601,737.4526416,78.12501145,90.96136646,103.4482895,17.59993228,8.355913377
JHGF,mammal_panda,block_02,3/6/2024,32143347-4542-7282-6c5b-b7b56e6a33c5,2024-03-06 13:42:57.110688-05:00,2024-03-06 13:53:13.359943-05:00,0,15,30,30,0,1113.566135,735,378.5661348,15,12,3,71,67,4,2,2,0,1.775542152,0.115213121,0.0486816,0.00324544,0,0,0,3,0,3,0,717,163,98,45,146,0,0,3,5,120,59,72,0,0.160772881,0.165808471,4.688396786,0.246240654,1.503555298,4.569896698,4.706703186,4.846738815,6.047119141,0.078955405,0.087782257,1.53E-05,0.026535034,0.057830811,0.102684021,2.571136475,1.063751811,2.658550811,0.002175902,0.243800393,0.431886636,0.812722525,166.0000835,75.75757047,90.02943366,104.1666712,17.92750833,8.402472264
JHGF,mammal_panda,block_03,3/6/2024,dd256e2a-4e9a-fe7f-54b8-66bfb1d5fa7e,2024-03-06 13:57:21.312206-05:00,2024-03-06 14:07:37.711329-05:00,1,19,100.7388733,90,10.7388733,1275.401474,1020,255.4014744,15,12,3,107,104,3,8,6,2,2.671308,0.173588826,0.163431241,0.012978604,0,0,0,8,0,8,0,834,188,182,29,128,1,0,2,15,100,49,136,0,0.093348803,0.102201932,4.651789978,0.227304987,0.975402832,4.541593552,4.674674988,4.793626785,5.539672852,0.073112956,0.078639609,0,0.024841309,0.053588867,0.09910965,2.364868164,0.954785429,13.40415963,0.000780235,0.220192342,0.386053035,0.684021893,2415.254012,80.21391377,93.29262436,106.3829992,16.27789706,8.392009845
JHGF,mammal_panda,block_04,3/6/2024,0f012d24-4034-4c67-7810-53878af71db6,2024-03-06 14:13:40.557008-05:00,2024-03-06 14:23:56.074452-05:00,3,14,309.2559029,120,189.2559029,831.20092,690,141.20092,18,15,3,88,81,7,12,8,4,2.444214577,0.142969141,0.502432394,0.019495792,1,1,2,4,0,4,0,853,154,118,18,206,0,0,0,20,125,62,149,0,0.098481241,0.113430741,4.723547743,0.236271444,2.022872925,4.591400146,4.743110657,4.876678467,6.472381592,0.090853673,0.093193082,1.53E-05,0.034500122,0.071792603,0.119171143,2.444534302,0.788254328,1.773001632,0.001222526,0.214345153,0.368731278,0.641263298,54.21388678,79.78722413,90.59871981,102.0408061,15.71822759,8.406752132
JKLZ,reptile_komodo,baseline,,,,,,,,,,,,,,,,,,,,,,,,,,,,,,,,,,,,,,,,,,,,,,0.074985996,0.068289454,3.72673033,0.408978924,1.424163818,3.480474472,3.707019806,3.944068909,5.16835022,0.069119248,0.077323488,0,0.024551392,0.051132202,0.091842651,2.566925049,0.565098985,1.539035586,0.000488142,0.154646936,0.261750938,0.446422697,65.69410273,73.89162232,88.54424708,103.4482895,32.10246268,5.814819995
JKLZ,reptile_komodo,block_01,3/14/2024,,,,21,4,,,,,,,,,,,,,,,,,,,,,,,,,,,,,,,,,,,,,,,,0.035627653,0.034465333,4.228647634,0.364924493,1.326980591,3.963119507,4.200912476,4.491714478,5.296012878,0.069804971,0.074551722,0,0.023269653,0.050582886,0.090316772,2.351043701,0.80249489,1.671902007,0.003271617,0.249690769,0.429430455,0.718545033,47.53344082,64.93506319,87.10827297,111.111119,42.67172478,5.883675417
JKLZ,reptile_komodo,block_02,3/14/2024,,,,26,5,,,,,,,,,,,,,,,,,,,,,,,,,,,,,,,,,,,,,,,,0.049860819,0.048273673,4.1935151,0.370117374,1.500183105,3.913970947,4.188293457,4.468391418,5.374038696,0.058111701,0.055265565,0,0.021316528,0.045669556,0.081321716,1.751998901,0.810022503,1.690740015,0.003572286,0.254533127,0.441435019,0.735272279,71.23173946,65.2173859,84.65196375,111.111119,42.28610334,5.893959008
JKLZ,reptile_komodo,block_03,3/14/2024,,,,34,0,,,,,,,,,,,,,,,,,,,,,,,,,,,,,,,,,,,,,,,,0.03986385,0.035927128,4.126825636,0.355972516,1.324279785,3.898422241,4.124259949,4.363121033,5.349189758,0.062542058,0.061117612,0,0.022399902,0.04800415,0.084701538,1.508071899,0.751492315,1.602711587,0.001059974,0.229738646,0.398563414,0.676866624,56.32864955,64.65517427,90.65623508,120.9677875,41.98977185,5.962905027
JKLZ,reptile_komodo,block_04,3/14/2024,,,,21,3,,,,,,,,,,,,,,,,,,,,,,,,,,,,,,,,,,,,,,,,0.030163436,0.026757492,3.978418361,0.381180664,1.519454956,3.702186584,3.97644043,4.249282837,5.490493774,0.053304334,0.053862011,0,0.018844604,0.04083252,0.072502136,1.522735596,0.773735919,1.931989293,0.000984039,0.239434187,0.417540079,0.704948005,227.159673,65.2173859,88.57130785,113.6363899,35.05507941,5.872272987
KJHG,reptile_komodo,baseline,,,,,,,,,,,,,,,,,,,,,,,,,,,,,,,,,,,,,,,,,,,,,,0.112298085,0.104402126,3.197514557,0.300053946,1.762420654,2.986162186,3.170570374,3.379232407,4.317184448,0.215714297,0.079863254,0.000747681,0.164813995,0.203521729,0.254283905,1.4921875,0.808087658,1.719308307,0.003103711,0.207431415,0.3667173,0.650363433,47.376114,88.23528546,100.8059249,109.4890317,9.503416127,4.981680294
KJHG,reptile_komodo,block_01,4/3/2024,6c8bd420-4c9d-706d-8454-94b39efeea8c,2024-04-03 15:47:26.188356-04:00,2024-04-03 15:57:43.712641-04:00,6,4,572.2388,195,377.2388,378.984164,330,48.984164,15,14,1,72,65,7,17,13,4,2.28829192,0.116594605,0.926666066,0.027529282,2,3,5,3,1,4,0,986,199,203,55,299,14,6,9,3,43,61,60,0,0.108072232,0.123989476,3.329631762,0.369205214,1.740478516,3.06965065,3.251449585,3.518941879,5.910995483,0.238231934,0.128173284,1.53E-05,0.147476196,0.229705811,0.317047119,1.336547852,1.227583827,2.5791126,0.0020605,0.316529172,0.584445046,1.139941663,72.38568761,98.68416533,128.245391,154.6391707,6.470878746,4.889869233
KJHG,reptile_komodo,block_02,4/3/2024,d108dce9-483b-883f-c89d-ccb85c4b4452,2024-04-03 16:04:37.437835-04:00,2024-04-03 16:14:53.087238-04:00,10,11,886.57486,570,316.57486,809.2289955,660,149.2289955,27,20,7,149,136,13,42,38,4,4.350616917,0.242020863,1.440064517,0.068220646,6,4,10,10,1,11,0,1034,195,282,54,179,26,0,19,10,32,98,88,2,0.114434808,0.159414964,3.482879872,0.381831814,2.129379272,3.18812561,3.415855408,3.726829529,4.957702637,0.147478996,0.091770317,0,0.079406738,0.135818481,0.203659058,1.236984253,0.930810501,1.798434034,0,0.26230666,0.462748565,0.828446691,68.82867696,108.6956432,133.742818,153.0612401,5.242602557,4.91459211
KJHG,reptile_komodo,block_03,4/3/2024,b6fe0b45-4b33-78f5-6ba6-31bd4383eb57,2024-04-03 16:19:17.222681-04:00,2024-04-03 16:29:32.498722-04:00,11,6,929.580116,300,629.580116,594.795035,225,369.795035,19,12,7,90,73,17,32,20,12,3.184723582,0.146275808,1.51083425,0.052009176,3,8,11,2,4,6,0,1003,201,213,50,269,24,0,26,14,49,63,62,11,0.051833046,0.055732368,3.371602487,0.373321783,1.761398315,3.094512939,3.298461914,3.612251282,4.683761597,0.168484207,0.097849214,0,0.09532547,0.161758423,0.229431152,1.496917725,0.967611355,1.732505347,0,0.285437076,0.504622852,0.911708075,60.657162,112.7819411,128.4212653,142.857198,4.932470104,4.89325704
KJHG,reptile_komodo,block_04,4/3/2024,f916980f-4c87-8c5d-4e73-9e8eb6e76bc1,2024-04-03 16:33:27.107973-04:00,2024-04-03 16:43:42.882746-04:00,,,1417.563567,735,682.563567,547.1723357,435,112.1723357,26,20,6,142,127,15,59,49,10,4.460763173,0.230603796,2.302081263,0.095814253,10,7,17,6,2,8,0,1034,166,231,50,214,65,0,39,14,57,88,69,31,0.065602341,0.07660603,3.46137952,0.382501243,1.557769775,3.185907364,3.381637573,3.678316116,4.792541504,0.150019896,0.083159434,1.53E-05,0.090133667,0.143783569,0.198883057,0.990447998,1.018990291,1.945414927,0.004602694,0.288061364,0.51334181,0.938179739,89.94456253,111.9402957,123.2120545,133.9286564,5.491434074,4.940913825
LKJH,mammal_thylacine,baseline,,,,,,,,,,,,,,,,,,,,,,,,,,,,,,,,,,,,,,,,,,,,,,0.089979645,0.096225019,2.913453485,0.205277972,1.481872559,2.773189545,2.897651672,3.025150299,3.834960938,0.057814045,0.063813641,0,0.022659302,0.045288086,0.074474335,1.764587402,0.739997946,1.884756752,0.000886907,0.159200244,0.284499571,0.556032954,89.96835374,1.946030098,38.12787189,109.4890793,5932.155201,8.244567831
LKJH,mammal_thylacine,block_01,4/16/2024,1263e8ef-4b1f-9a88-a07b-85971cac44ab,2024-04-16 10:57:55.237102-04:00,2024-04-16 11:08:10.982526-04:00,5,11,483.148347,345,138.148347,754.624653,705,49.624653,19,16,3,76,71,5,25,23,2,2.074101836,0.123427633,0.784656009,0.040601195,4,1,5,11,0,11,0,787,186,190,46,171,9,26,0,0,23,57,46,0,0.136899163,0.10732142,3.836125689,0.304030103,1.672897339,3.621522903,3.819122314,4.04044342,4.78263855,0.106267693,0.062053175,1.53E-05,0.059597015,0.102470398,0.149051666,1.278305054,0.68260768,1.522059963,0.000856974,0.183156667,0.31610218,0.530673166,43.96279964,0.148389969,2.243843354,6.669631086,195465.0972,8.198619825
LKJH,mammal_thylacine,block_02,4/16/2024,6ee85647-4297-186c-24fa-c4970441459c,2024-04-16 11:12:32.018475-04:00,2024-04-16 11:22:47.387228-04:00,8,11,543.160992,390,153.160992,691.610931,630,61.610931,17,12,5,87,79,8,28,26,2,2.442977325,0.141378644,0.882659364,0.045501173,6,2,8,10,1,11,0,727,179,161,37,173,7,34,0,0,25,51,36,4,0.123481089,0.124520183,3.883035426,0.363922903,1.464172363,3.657691956,3.897094727,4.137096405,4.957000732,0.088376725,0.061672454,0,0.038864136,0.079528809,0.126708984,1.065612793,0.65646067,1.485487018,0.001032933,0.180311937,0.306061694,0.524090939,49.61891405,0.302761182,38.67484933,103.4482895,47140.76108,8.587837328
LKJH,mammal_thylacine,block_03,4/16/2024,b8103d26-48b2-edb7-9cf6-febff2e0b27b,2024-04-16 11:27:04.499339-04:00,2024-04-16 11:37:19.733358-04:00,5,14,550.120106,405,145.120106,1044.730508,750,294.7305075,19,16,3,90,84,6,31,27,4,2.364885429,0.146285799,0.894163991,0.050387331,4,1,5,10,4,14,0,723,154,188,33,141,10,36,0,0,49,52,41,7,0.086736321,0.090476541,3.747827496,0.33180311,1.446670532,3.536577225,3.747070313,3.981431961,5.031402588,0.096750326,0.059375426,0,0.051513672,0.092926025,0.135139465,1.701217651,0.668778731,1.409560031,0.001040386,0.185448509,0.317999665,0.546708385,29.93393328,0.174367916,51.35226518,115.3846196,221061.9797,9.050428171
LKJH,mammal_thylacine,block_04,4/16/2024,7dcb719f-46a8-2478-bac5-4da70d64241f,2024-04-16 11:41:35.548627-04:00,2024-04-16 11:51:51.212965-04:00,3,15,452.183418,345,107.183418,946.254479,795,151.254479,23,17,6,102,94,8,25,23,2,2.805001676,0.165674693,0.734464204,0.040606542,2,1,3,12,3,15,0,786,195,134,29,174,9,41,0,1,72,55,45,17,0.080608253,0.079624025,3.653713776,0.297240233,1.52293396,3.448616028,3.638168335,3.840713501,5.025100708,0.078503646,0.060985722,0,0.032897949,0.067169189,0.112075806,1.233001709,0.682401581,1.451673718,0,0.190876932,0.325191807,0.549021803,50.08255868,0.259789744,37.37733844,98.03921752,116764.0528,6.827678598
LKMN,mammal_panda,baseline,,,,,,,,,,,,,,,,,,,,,,,,,,,,,,,,,,,,,,,,,,,,,,0.163296683,0.180348491,3.663184871,0.561966935,1.04385376,3.25752449,3.800365448,4.100320816,4.718963623,0.212371932,0.159224951,3.05E-05,0.098964691,0.193244934,0.281360626,1.897415161,1.128981101,1.861237947,0.002713336,0.245516955,0.5389474,1.260925963,97.53578362,68.49315635,83.55115108,100.6711483,25.17459236,8.173387069
LKMN,mammal_panda,block_01,4/10/2024,fff26c4d-43e8-7f61-fd2b-5782e7e5534a,2024-04-10 15:32:42.993256-04:00,2024-04-10 15:42:58.054943-04:00,9,18,757.612633,600,157.612633,1295.27027,1020,275.27027,29,23,6,233,224,9,44,40,4,6.306514571,0.378823791,1.231766909,0.07153754,6,3,9,15,3,18,0,1098,164,254,42,187,20,0,17,0,178,125,98,8,0.046835003,0.043517161,4.988162882,0.396507473,1.238342285,4.751483917,5.033535004,5.288902283,6.005279541,0.287052677,0.104291075,9.16E-05,0.218544006,0.286819458,0.354385376,2.020889282,0.682592987,1.643312084,0.003231838,0.159916315,0.285934369,0.516810536,91.24163055,73.89162232,94.08447984,114.5038322,25.66151364,8.709887529
LKMN,mammal_panda,block_02,4/10/2024,5f37dd81-4a8f-f82f-c1a4-989ea7e3cc0d,2024-04-10 15:48:53.514967-04:00,2024-04-10 15:59:09.385737-04:00,12,9,1115.973086,135,980.9730857,566.7962865,495,71.7962865,26,7,19,74,36,38,24,9,15,4.10351628,0.120155077,1.812024762,0.038969214,1,10,11,8,1,9,0,1048,184,189,57,183,31,0,13,0,228,125,28,8,0.053976832,0.051806242,5.178986351,0.371398085,1.420471191,4.951622009,5.228546143,5.454711914,5.998123169,0.257498441,0.107409167,7.63E-05,0.186546326,0.251495361,0.324157715,2.333267212,0.767941928,1.708525618,0.001025367,0.17434442,0.312516094,0.578736537,40.73703459,73.89160062,95.89877733,118.1102047,23.40481058,8.807547435
LKMN,mammal_panda,block_03,4/10/2024,39593e97-4ced-1883-561b-c1981864c0f2,2024-04-10 16:02:52.761861-04:00,2024-04-10 16:13:08.723667-04:00,,,624.279096,450,174.279096,622.993601,420,202.993601,24,16,8,128,115,13,34,30,4,3.746606963,0.207805092,1.013502931,0.055198228,5,1,6,8,3,11,0,858,173,175,35,129,28,0,13,0,150,104,46,3,0.02585693,0.02431694,5.041946186,0.331803394,1.484222412,4.859352112,5.068862915,5.260528564,5.93270874,0.305778879,0.105850589,0.000289917,0.236724854,0.307815552,0.376586914,1.763519287,0.684635546,1.587416817,0.002324179,0.148574828,0.274639743,0.51788642,69.06322241,72.46374124,95.07587728,117.1875354,24.42187613,8.764685027
LKMN,mammal_panda,block_04,4/10/2024,663178b4-4750-34d4-90da-7cb074beb55e,2024-04-10 16:17:10.545409-04:00,2024-04-10 16:27:26.081931-04:00,12,7,852.327581,720,132.327581,627.766637,360,267.766637,26,22,4,224,208,16,51,48,3,6.369651455,0.363910169,1.384690511,0.082854548,10,2,12,4,3,7,0,970,175,191,78,187,35,0,8,0,134,95,59,7,0.032561381,0.030128142,5.123796609,0.345613328,1.227630615,4.921783447,5.166091919,5.376331329,5.91468811,0.326442738,0.114767093,0.00062561,0.251678467,0.322540283,0.398757935,2.614852905,0.617725881,1.419869958,0.000521782,0.141464381,0.251857439,0.45834345,37.23760735,78.53398867,101.9211115,123.9670115,20.95752383,8.65877161
LKPW,mammal_thylacine,baseline,,,,,,,,,,,,,,,,,,,,,,,,,,,,,,,,,,,,,,,,,,,,,,0.130174194,0.144024423,4.79542121,0.451300386,1.026153564,4.559074402,4.808666229,5.046979904,6.146911621,0.262283346,0.119682102,3.05E-05,0.206359863,0.267166138,0.32460022,2.359039307,1.023930142,2.20940214,0.000467817,0.172848621,0.336386733,0.822938049,39.45779009,63.29112638,70.01419366,76.92310326,25.94467049,5.918531831
LKPW,mammal_thylacine,block_01,2/21/2024,ab54cf6b-4602-187d-4dbf-308f2571bdbb,2024-02-21 11:04:33.933170-05:00,2024-02-21 11:14:51.559857-05:00,5,15,521.326536,45,476.326536,960,960,0,17,9,8,52,40,12,11,3,8,2.171841992,0.084193253,0.844080327,0.017810111,0,2,2,10,0,10,0,714,136,203,76,112,0,7,25,1,51,43,53,0,0.08365128,0.093046336,5.355621581,0.420068987,1.897918701,5.173892975,5.431625366,5.62594986,6.61151123,0.301331728,0.102240606,0.000442505,0.239074707,0.303787231,0.36605835,2.397018433,0.822233162,1.924358043,0.00056479,0.158202823,0.293987654,0.580772296,39.93118369,60.7287501,71.56612808,83.33333002,28.89058846,5.770538959
LKPW,mammal_thylacine,block_02,2/21/2024,69d133a0-4a25-7ea2-81fb-2883be8d8185,2024-02-21 11:20:37.724183-05:00,2024-02-21 11:30:54.977712-05:00,3,13,231.9098805,30,201.9098805,838.5947804,795,43.5947804,13,5,8,27,18,9,6,2,4,1.075064672,0.043742156,0.375712523,0.009720479,0,1,1,6,0,6,0,825,153,225,86,226,1,0,22,0,43,36,31,0,0.047719556,0.053065064,5.105210383,0.395922719,1.024932861,4.874343872,5.127113342,5.374420166,6.10358429,0.243306112,0.091262245,3.05E-05,0.187080383,0.246963501,0.299591065,1.979644775,0.751536915,1.817576323,0.000397463,0.15124948,0.274203511,0.524928995,47.74267424,58.13953123,69.25495221,81.96722721,34.23818655,5.668922911
LKPW,mammal_thylacine,block_03,2/21/2024,3ff660ba-4d88-cf89-379c-6fa45712769a,2024-02-21 11:34:24.978245-05:00,2024-02-21 11:44:41.321190-05:00,1,15,89.517073,60,29.517073,1010.203544,855,155.203544,11,9,2,53,49,4,5,4,1,1.410033683,0.085991087,0.145239065,0.008112367,0,0,0,1,0,1,0,816,157,238,83,158,1,3,30,0,46,45,53,0,0.074469608,0.076462306,4.972176516,0.403596047,1.240783691,4.749649048,4.989189148,5.233924866,6.006370544,0.245653937,0.091178942,6.10E-05,0.190177918,0.250030518,0.302627564,2.954681396,0.719460383,1.707312817,0.003623961,0.148936895,0.272445553,0.517318396,37.04117175,55.55555948,68.29096272,82.8729308,37.34467347,5.744640446
LKPW,mammal_thylacine,block_04,2/21/2024,87069e81-4953-3251-444b-88a144ec20b5,2024-02-21 11:48:22.906621-05:00,2024-02-21 11:58:38.671666-05:00,6,15,607.5118525,135,472.5118525,1047.019465,885,162.019465,15,9,6,42,31,11,16,9,7,1.844584729,0.068207834,0.986596848,0.025983937,1,4,5,13,0,13,0,649,112,148,50,158,2,0,28,0,46,46,43,7,0.063080386,0.064510834,4.692380106,0.391581578,1.442733765,4.445098877,4.69543457,4.946044922,5.810211182,0.218399757,0.089039743,3.05E-05,0.165969849,0.218933106,0.269874573,2.109558105,0.8373537,4.559256697,0.000290408,0.166734957,0.297404489,0.553564585,810.6752392,55.97014786,68.11453066,81.52175878,40.12479061,5.675135636
LPDW,mammal_panda,baseline,,,,,,,,,,,,,,,,,,,,,,,,,,,,,,,,,,,,,,,,,,,,,,0.099377924,0.077579559,3.129700819,0.226787861,1.601379395,2.984422684,3.130149841,3.272428513,4.183227539,0.489147767,0.100610785,0.00869751,0.427574158,0.490440369,0.546569824,1.407577515,0.757213162,2.146337872,0.001433723,0.250507701,0.433525956,0.728290809,138.424433,85.22727319,91.7873192,97.40260736,9.003687656,8.972145014
LPDW,mammal_panda,block_01,3/26/2024,,,,,,,,,,,,,,,,,,,,,,,,,,,,,,,,,,,,,,,,,,,,,0.028721297,0.029247059,3.842078595,0.282307764,1.744598389,3.658975601,3.833686829,4.030441284,4.99269104,0.784741403,0.113014839,0.005783081,0.71975708,0.794494629,0.858108521,1.58430481,0.696727973,1.876132917,0.001306259,0.16912444,0.298584527,0.534500074,99.98043542,83.33330243,93.08740441,102.7398324,10.56633127,8.400752723
LPDW,mammal_panda,block_02,3/26/2024,,,,5,15,,,,,,,,,,,,,,,,,,,,,,,,,,,,,,,,,,,,,,,,0.027881314,0.028911231,3.820008843,0.298239014,1.420471191,3.617708206,3.827087402,4.025209427,5.013458252,0.796143536,0.116385594,0.021377563,0.723789215,0.806976318,0.87720871,1.585647583,0.747155013,2.035914306,0.001963341,0.199100462,0.347847952,0.601019643,194.8145452,79.36507496,89.64118461,99.3377725,15.37512002,8.558620881
LPDW,mammal_panda,block_03,3/26/2024,,,,8,13,,,,,,,,,,,,,,,,,,,,,,,,,,,,,,,,,,,,,,,,0.044526104,0.05031462,3.805320952,0.313475805,1.959243774,3.579803467,3.793663025,4.019920349,4.943115234,0.768258639,0.122133611,0.004257202,0.678829193,0.775131226,0.861053467,1.729614258,0.840383674,8.375793236,0.004170761,0.231066733,0.406009719,0.701151545,1560.817903,78.53403769,88.54956108,98.68424272,15.97130161,8.742907202
LPDW,mammal_panda,block_04,3/26/2024,,,,4,15,,,,,,,,,,,,,,,,,,,,,,,,,,,,,,,,,,,,,,,,0.160938122,0.221448468,3.6603325,0.332059072,1.701599121,3.424362183,3.642684937,3.877624512,5.359146118,0.701874182,0.138933143,0.001953125,0.606582642,0.702911377,0.802978516,2.271026611,0.880126139,1.708606942,0.000733363,0.254039358,0.457055578,0.835424146,67.82909317,76.1421447,88.57873945,100.6711886,19.18613417,9.225207228
LPZV,mammal_thylacine,baseline,,,,,,,,,,,,,,,,,,,,,,,,,,,,,,,,,,,,,,,,,,,,,,0.129848105,0.129676056,3.313091388,0.245607741,1.691452026,3.15802002,3.306793213,3.471206665,4.64012146,0.13239268,0.067331891,0,0.092178345,0.128494263,0.164733887,1.414886475,0.761219678,3.047545908,0.001756025,0.157934433,0.27323377,0.479974295,340.7560058,48.23151288,83.32580379,119.0476312,224.1680116,7.038796046
LPZV,mammal_thylacine,block_01,3/13/2024,6a0b7489-4997-a37e-d69c-38ab276c14cd,2024-03-13 16:29:52.668457-04:00,2024-03-13 16:40:09.133874-04:00,5,14,400.304953,315,85.304953,1124.165954,465,659.165954,21,18,3,127,122,5,24,21,3,3.129874934,0.206013179,0.649355085,0.038931624,3,0,3,6,4,10,0,1214,202,333,46,265,5,37,0,0,91,146,78,0,0.057686768,0.057998848,4.054154927,0.395059188,1.750656128,3.808570862,4.075698853,4.3204422,5.078155518,0.216985699,0.076511815,1.53E-05,0.177841187,0.224792481,0.26335144,1.588424683,0.736834652,1.834617329,0.002330507,0.187438386,0.324574683,0.549008822,167.7459034,49.34210201,83.80005827,117.1875354,225.2512732,7.529419206
LPZV,mammal_thylacine,block_02,3/13/2024,95b311f5-4446-507a-907e-07b9160fc694,2024-03-13 16:44:37.260606-04:00,2024-03-13 16:54:52.478340-04:00,7,14,662.756894,195,467.756894,1041.44033,615,426.44033,26,13,13,94,73,21,21,13,8,3.41796163,0.152791434,1.07727209,0.034134257,1,4,5,7,4,11,0,1098,187,199,39,279,14,39,0,0,137,133,68,0,0.057681437,0.056280567,4.525000496,0.424235269,1.353225708,4.278539658,4.567985535,4.811325073,5.534591675,0.228628516,0.073199565,0.000473022,0.187408447,0.229003906,0.270126343,1.925094604,0.768284794,1.657186981,0,0.196758427,0.339281055,0.575686613,28.90947325,48.3870964,83.72930872,120.9677294,216.7124448,7.757159654
LPZV,mammal_thylacine,block_03,3/13/2024,15f350b5-46bc-916a-4e48-529cd8813848,2024-03-13 16:58:46.618860-04:00,2024-03-13 17:09:03.914820-04:00,12,16,1252.463315,300,952.463315,1159.869129,615,544.8691292,33,14,19,112,80,32,33,20,13,4.219894822,0.18143647,2.028951097,0.05345896,2,4,6,7,2,9,0,971,181,257,46,153,12,51,0,0,105,133,32,0,0.044874125,0.044704514,4.420501083,0.427084593,1.573898315,4.159484863,4.442947388,4.7137146,5.858093262,0.20424697,0.072843023,0.000198364,0.163696289,0.204620361,0.244125366,2.212890625,0.709045123,1.676883393,0.000919461,0.155229674,0.269867832,0.470024473,57.38187586,50.50504191,84.82896383,119.0476312,207.7409212,7.673718728
LPZV,mammal_thylacine,block_04,3/13/2024,01c80c4d-46c8-45f5-d583-0281844f2f5d,2024-03-13 17:12:52.499283-04:00,2024-03-13 17:23:11.285143-04:00,18,14,1313.655117,690,623.655117,1153.002846,675,478.0028462,31,21,10,182,159,23,56,46,10,5.894646506,0.294124368,2.12295594,0.090499806,9,3,12,5,2,7,0,998,155,210,41,277,15,42,0,1,93,104,59,0,0.034968122,0.034771947,4.38537187,0.359852341,1.965629578,4.161319733,4.406921387,4.622440338,5.671905518,0.215662157,0.067148693,0.000137329,0.17868042,0.218002319,0.252883911,1.9921875,0.719552627,6.253301202,0.002524737,0.164280841,0.283973848,0.494601001,1198.218694,48.3870964,78.6300078,111.111119,128.5271476,7.748748229
LRTB,mammal_thylacine,baseline,,,,,,,,,,,,,,,,,,,,,,,,,,,,,,,,,,,,,,,,,,,,,,0.051471533,0.055648374,4.00444188,0.29871044,1.855148315,3.797763824,3.984100342,4.192443848,5.042800903,0.31024439,0.091337746,0.002212524,0.255050659,0.308555603,0.362506867,1.558746338,0.721507951,3.415969547,0.00273548,0.178610452,0.313259147,0.565562838,384.5096028,78.12498719,92.49921194,107.1428681,38.85048359,9.49141154
LRTB,mammal_thylacine,block_01,3/6/2024,85a5023a-4976-0721-23b2-028c85a483dd,2024-03-06 13:26:26.617466-05:00,2024-03-06 13:36:42.000566-05:00,8,10,713.599368,690,23.599368,705,705,0,24,22,2,178,172,6,48,46,2,4.489740414,0.289250712,1.159601829,0.078000192,4,0,4,4,0,4,0,1012,194,257,35,222,30,0,17,0,69,117,55,0,0.072042031,0.069115248,4.512203648,0.322266603,1.693847656,4.311677933,4.514694214,4.7062397,5.812820435,0.519038846,0.095947382,0.005340576,0.458927155,0.516357422,0.579036713,1.907196045,0.757561999,1.477280923,0.001677077,0.205630112,0.35260998,0.617284115,22.07144171,80.64514,101.4742651,123.9670115,33.29637684,9.678179875
LRTB,mammal_thylacine,block_02,3/6/2024,32143347-4542-7282-6c5b-b7b56e6a33c5,2024-03-06 13:42:57.110688-05:00,2024-03-06 13:53:13.359943-05:00,10,8,823.045265,270,553.045265,629.111161,360,269.111161,21,12,9,83,67,16,26,18,8,3.469036015,0.134685761,1.335572024,0.04219072,1,2,3,2,1,3,0,944,219,180,47,221,38,0,32,0,52,102,51,0,0.077626595,0.05170953,4.431432218,0.340408019,1.867675781,4.207056046,4.44222641,4.663978577,5.524856567,0.524127697,0.092753294,0.045837402,0.460464478,0.519920349,0.582809448,1.385894775,0.836060988,13.14246061,0.000688772,0.212068679,0.367011222,0.642696015,2494.719481,78.94736941,96.16722593,114.5038322,35.05290064,9.765403737
LRTB,mammal_thylacine,block_03,3/6/2024,dd256e2a-4e9a-fe7f-54b8-66bfb1d5fa7e,2024-03-06 13:57:21.312206-05:00,2024-03-06 14:07:37.711329-05:00,7,18,927.07256,615,312.07256,1189.696704,825,364.696704,31,22,9,151,132,19,48,41,7,4.692553383,0.244971147,1.504013431,0.077871623,2,1,3,9,0,9,0,942,134,215,56,165,38,0,34,0,96,145,59,0,0.080393183,0.061194997,4.35073682,0.343212822,1.740036011,4.139450073,4.37612915,4.586257935,6.013534546,0.468721428,0.095717736,0.027603149,0.41142273,0.46988678,0.528549194,1.813201904,0.723738961,1.372821126,0.002503758,0.209032911,0.36232257,0.628449903,18.4735654,76.92310326,93.35623407,110.2941842,38.19343158,9.750800198
LRTB,mammal_thylacine,block_04,3/6/2024,0f012d24-4034-4c67-7810-53878af71db6,2024-03-06 14:13:40.557008-05:00,2024-03-06 14:23:56.074452-05:00,11,14,1017.84505,480,537.84505,937.479055,660,277.479055,26,18,8,130,114,16,41,32,9,3.977009877,0.211204412,1.653641274,0.066610622,2,2,4,3,0,3,0,873,178,147,27,192,22,0,26,0,107,117,54,0,0.08395365,0.044414669,4.402204129,0.296608836,1.992218018,4.20765686,4.403800964,4.614746094,5.485549927,0.496678493,0.098135955,0.006317139,0.433010101,0.488388062,0.552097321,1.630706787,0.735196979,1.578018988,0.003243794,0.205507042,0.354080209,0.612610454,125.7482612,74.62680849,90.51586871,107.1429137,41.47182931,9.833158239
MJKL,mammal_thylacine,baseline,,,,,,,,,,,,,,,,,,,,,,,,,,,,,,,,,,,,,,,,,,,,,,0.212346781,0.11088151,4.487937693,0.339181717,1.384124756,4.294021606,4.497665405,4.689926147,5.667411804,0.275401568,0.247983685,1.53E-05,0.110187531,0.217834473,0.342098236,2.398696899,1.034038884,1.984310721,0.004712813,0.278409955,0.537685169,1.124901828,133.412626,78.53401318,87.16501916,95.54143435,16.66506854,6.841861012
MJKL,mammal_thylacine,block_01,4/9/2024,9e78a544-4fad-2033-7311-4f8a28b2f34f,2024-04-09 12:45:55.566185-04:00,2024-04-09 12:56:11.552493-04:00,9,18,857.00324,750,107.00324,1245.258711,885,360.2587106,32,27,5,270,261,9,54,50,4,6.792269002,0.438321431,1.39126995,0.087664286,9,0,9,14,4,18,0,1250,179,314,23,227,23,0,49,58,137,119,57,27,0.067058738,0.057892957,5.207083917,0.363193538,1.096664429,5.00113678,5.248691559,5.458187103,6.11505127,0.299558283,0.107371257,9.16E-05,0.239463806,0.30809021,0.366821289,2.224975586,0.820457497,16.11104608,0.001780384,0.20092712,0.353140706,0.632857598,3139.703622,70.09346232,89.81472903,111.9403455,29.70369336,7.312774044
MJKL,mammal_thylacine,block_02,4/9/2024,505ab3c0-4bfb-f248-a0ff-53be350d22d6,2024-04-09 13:00:27.405583-04:00,2024-04-09 13:10:42.868378-04:00,,,883.782105,720,163.782105,1312.776225,1200,112.776225,28,26,2,269,265,4,51,48,3,6.724746078,0.437069474,1.435963493,0.082864473,8,1,9,19,2,21,0,1225,185,230,21,292,21,0,39,44,96,169,74,37,0.111246263,0.096113803,4.901150511,0.540801789,1.957733154,4.734481812,5.025066376,5.250991821,5.888656616,0.2403487,0.115749805,4.58E-05,0.161991119,0.25151062,0.316238403,2.33392334,0.722829427,1.954349004,0.000979269,0.192965559,0.33591883,0.602272288,205.7148278,67.5675667,85.58620477,106.3829992,28.09145272,7.226229418
MJKL,mammal_thylacine,block_03,4/9/2024,e27612de-4620-d131-fe94-1d8df7bf34e9,2024-04-09 13:15:14.374021-04:00,2024-04-09 13:25:29.235641-04:00,7,20,749.6273185,420,329.6273185,1488.714136,885,603.7141356,26,18,8,136,120,16,35,28,7,3.957311306,0.221187981,1.219180534,0.056923377,3,4,7,12,8,20,0,1156,168,271,24,189,29,0,43,49,179,133,38,29,0.051319471,0.052320533,4.77134655,0.364560546,1.739089966,4.560302734,4.80796051,5.033599854,5.738815308,0.302258603,0.105600578,0.000259399,0.236537933,0.30493927,0.367801666,2.511062622,0.705483572,1.350798346,0.001258411,0.219035544,0.372610154,0.639294682,57.68141851,69.12440255,84.08103128,104.1666712,27.60773477,7.168156547
MJKL,mammal_thylacine,block_04,4/9/2024,5d02a094-4bec-a7f8-e7d4-979a9b28ba7c,2024-04-09 13:29:13.404374-04:00,2024-04-09 13:39:30.583512-04:00,15,12,1054.26133,990,64.26133,1064.516246,705,359.516246,27,24,3,275,269,6,68,66,2,6.870770018,0.445575657,1.7081934,0.110178708,14,1,15,7,5,12,0,1271,158,241,27,269,47,0,41,59,154,193,51,24,0.05516527,0.055224805,4.748292112,0.365924847,1.817718506,4.508672714,4.767745972,5.00976181,6.228515625,0.279323147,0.101795754,6.10E-05,0.217475891,0.28453064,0.346069336,1.994888306,0.770833103,2.356213528,0,0.229975133,0.396806953,0.692357392,364.0574191,43.22766535,87.29140573,133.9285851,35.0063089,7.854427854
MJUY,mammal_panda,baseline,,,,,,,,,,,,,,,,,,,,,,,,,,,,,,,,,,,,,,,,,,,,,,0.059142791,0.066620079,4.479894741,0.318315593,1.11730957,4.316690445,4.513427734,4.685121536,5.374740601,0.200915876,0.119914883,0.000320435,0.132171631,0.180877686,0.242706299,2.402526855,0.63786941,1.393812384,0.001738356,0.159311242,0.289385435,0.554792493,31.98881879,73.52941314,79.00966498,84.74576933,14.46274293,10.41678076
MJUY,mammal_panda,block_01,3/13/2024,6a0b7489-4997-a37e-d69c-38ab276c14cd,2024-03-13 16:29:52.668457-04:00,2024-03-13 16:40:09.133874-04:00,5,19,710.168577,150,560.168577,1408.462436,660,748.4624364,25,10,15,90,69,21,18,10,8,3.414182069,0.145993591,1.152000676,0.029198718,0,2,2,6,6,12,0,938,176,213,62,207,12,65,0,0,78,60,59,0,0.088039948,0.086171953,4.60111908,0.365885619,1.405227661,4.410762787,4.644256592,4.843486786,5.938796997,0.255540506,0.092536413,1.53E-05,0.204742432,0.24987793,0.296844482,2.148956299,0.93271896,2.845096476,0.000924254,0.171378258,0.318468724,0.639485842,345.2887732,68.80734111,83.00282705,101.35135,26.33287251,7.615115218
MJUY,mammal_panda,block_02,3/13/2024,95b311f5-4446-507a-907e-07b9160fc694,2024-03-13 16:44:37.260606-04:00,2024-03-13 16:54:52.478340-04:00,12,10,1026.499525,105,921.499525,908.819001,495,413.819001,24,3,21,62,16,46,24,7,17,4.211098949,0.100777329,1.6685142,0.039010579,2,5,7,4,2,6,0,942,141,187,79,229,20,31,0,0,116,97,33,6,0.081739065,0.083627179,5.018259793,0.371032546,1.423706055,4.820045471,5.0652771,5.262054443,6.755722046,0.297940347,0.096974377,4.58E-05,0.248565674,0.295677185,0.342727661,2.897872925,0.9826992,2.768100917,0.00179622,0.206247243,0.389587691,0.782835847,317.4214649,70.75471284,82.68582895,95.54139808,17.30895529,10.50955437
MJUY,mammal_panda,block_03,3/13/2024,15f350b5-46bc-916a-4e48-529cd8813848,2024-03-13 16:58:46.618860-04:00,2024-03-13 17:09:03.914820-04:00,9,12,808.2577786,225,583.2577786,951.459723,420,531.459723,21,7,14,72,44,28,28,15,13,3.066299334,0.116637731,1.309352128,0.045359118,1,2,3,4,3,7,0,878,124,233,54,136,19,48,0,0,121,79,56,7,0.102717147,0.10531442,4.823487239,0.379565787,1.017105103,4.608354568,4.859539032,5.089033127,6.021133423,0.228409272,0.096145021,6.10E-05,0.174419403,0.22127533,0.26940918,2.080078125,0.968088273,3.843810386,0.001496866,0.195560721,0.376024438,0.756313607,579.5780844,70.42253537,82.10192943,94.33963481,16.90390394,10.39977691
MJUY,mammal_panda,block_04,3/13/2024,01c80c4d-46c8-45f5-d583-0281844f2f5d,2024-03-13 17:12:52.499283-04:00,2024-03-13 17:23:11.285143-04:00,7,15,766.5010698,135,631.5010698,1030.91356,615,415.91356,27,5,22,111,65,46,22,9,13,5.272283734,0.179383543,1.238717817,0.035553495,0,5,5,8,1,9,0,836,107,107,48,194,14,59,0,0,168,94,36,4,0.097271768,0.101994674,4.75805968,0.340942366,1.507858276,4.566162109,4.795089722,4.993606567,6.268844604,0.274399898,0.089142338,0.000579834,0.223510742,0.269393921,0.318862915,2.302856445,0.899876824,2.056285211,0.000851996,0.192954948,0.358865582,0.697724151,58.23449443,69.76745037,80.80365394,93.75008941,18.11931325,10.48675848
MNBW,reptile_komodo,baseline,,,,,,,,,,,,,,,,,,,,,,,,,,,,,,,,,,,,,,,,,,,,,,0.019153774,0.021946518,5.069054605,0.381013039,2.453735352,4.844572067,5.124263763,5.318519592,5.891540527,0.946347786,0.108453146,0.193115234,0.884742737,0.952880859,1.020553589,2.029190063,0.631089989,2.043853324,0.002226099,0.181489011,0.32893801,0.59162462,183.0501293,67.87329833,75.82212811,84.74579787,13.08125829,7.52838708
MNBW,reptile_komodo,block_01,3/26/2024,,,,,,,,,,,,,,,,,,,,,,,,,,,,,,,,,,,,,,,,,,,,,0.018550326,0.018501251,5.284380601,0.322592598,2.454269409,5.05009079,5.295196533,5.523021698,6.133560181,0.843335359,0.116765503,0.017547607,0.769607544,0.845458984,0.922927856,3.018417358,0.815083703,1.869586327,0.000878076,0.217782357,0.407036272,0.766624198,132.9013173,61.47540539,80.02503165,102.0408474,22.9583947,8.086981139
MNBW,reptile_komodo,block_02,3/26/2024,,,,14,10,,,,,,,,,,,,,,,,,,,,,,,,,,,,,,,,,,,,,,,,0.023886139,0.023019802,5.308384703,0.306895789,2.109970093,5.115074158,5.33454895,5.525886536,6.32711792,0.714829688,0.122099198,0.070037842,0.635360718,0.707473755,0.789489746,3.28553772,0.782248842,1.884981086,0.000553571,0.222135232,0.403934853,0.736722293,176.2303794,64.65519089,80.84558237,98.03921752,22.70290128,7.993953936
MNBW,reptile_komodo,block_03,3/26/2024,,,,11,11,,,,,,,,,,,,,,,,,,,,,,,,,,,,,,,,,,,,,,,,0.061166658,0.05855566,5.289878045,0.316391434,1.566223145,5.100259781,5.32635498,5.512784958,6.884124756,0.677667713,0.124280384,0.049453735,0.599197388,0.674026489,0.757011414,2.76864624,0.845825015,2.299915518,0.001478454,0.22187512,0.402027836,0.736996687,250.7778883,64.65517427,79.44040529,95.54139808,22.73461836,7.906632085
MNBW,reptile_komodo,block_04,3/26/2024,,,,17,5,,,,,,,,,,,,,,,,,,,,,,,,,,,,,,,,,,,,,,,,0.029004081,0.024785984,5.085258816,0.33291905,2.719528198,4.863502502,5.087684631,5.332801819,6.141448975,0.683994768,0.097381364,0.010803223,0.633651733,0.685134888,0.738250732,3.335128784,0.854166802,1.890506247,0.000956868,0.224141174,0.411874876,0.7488225,83.13146975,65.78947795,78.78928984,93.16772863,23.05929717,7.784641634
MNOP,mammal_thylacine,baseline,,,,,,,,,,,,,,,,,,,,,,,,,,,,,,,,,,,,,,,,,,,,,,0.05354641,0.076882662,3.988414017,0.425389934,1.791381836,3.710731506,3.970916748,4.253725052,5.682128906,0.457526034,0.162024388,0.001983643,0.348175049,0.455612183,0.557048798,1.449768066,0.814102985,2.110463108,0.000149707,0.237786524,0.430397823,0.802411855,123.0195266,64.93506319,82.90922957,101.35135,31.37074107,7.292130046
MNOP,mammal_thylacine,block_01,4/10/2024,fff26c4d-43e8-7f61-fd2b-5782e7e5534a,2024-04-10 15:32:42.993256-04:00,2024-04-10 15:42:58.054943-04:00,8,12,652.340971,630,22.340971,884.514133,765,119.514133,26,18,8,186,177,9,43,42,1,4.64115443,0.302408692,1.060610642,0.069911687,8,0,8,10,2,12,0,996,153,229,34,208,14,0,21,2,145,107,39,4,0.073576707,0.084206908,5.440107825,0.858703278,1.392059326,4.687402725,5.723632813,6.129272461,7.4425354,0.201297128,0.112575449,3.05E-05,0.120178223,0.197364807,0.271869659,1.745880127,0.742893118,1.523417858,0.001837301,0.202486711,0.356902664,0.645573018,44.24720939,76.92305623,96.81204699,116.2791162,24.86088675,7.068631531
MNOP,mammal_thylacine,block_02,4/10/2024,5f37dd81-4a8f-f82f-c1a4-989ea7e3cc0d,2024-04-10 15:48:53.514967-04:00,2024-04-10 15:59:09.385737-04:00,10,14,963.7442173,675,288.7442173,1164.747241,645,519.7472412,30,18,12,172,149,23,53,45,8,5.357085103,0.279279369,1.564848121,0.086057015,8,2,10,8,5,13,1,996,162,204,26,267,12,0,27,2,145,98,42,7,0.112119709,0.121039219,5.738856608,0.532041133,1.648147583,5.385313034,5.799648285,6.121919632,7.164642334,0.135695619,0.101869261,0,0.059997559,0.117294312,0.190261841,2.642074585,0.762493064,1.65839995,0.001069458,0.200812867,0.350713386,0.635830887,63.13117262,75.75757047,95.58553433,115.3846725,24.32696219,7.009456908
MNOP,mammal_thylacine,block_03,4/10/2024,39593e97-4ced-1883-561b-c1981864c0f2,2024-04-10 16:02:52.761861-04:00,2024-04-10 16:13:08.723667-04:00,,,857.366419,450,407.366419,766.3448234,510,256.3448234,24,14,10,150,128,22,37,30,7,4.509383233,0.243521593,1.391914906,0.06006866,5,3,8,7,3,10,0,1013,166,238,57,187,20,0,30,1,141,118,33,11,0.096979274,0.11291587,5.821224498,0.428911096,1.853088379,5.554607391,5.849006653,6.108764648,7.28427124,0.142389931,0.103216913,0,0.065994263,0.125244141,0.197803497,3.337844849,0.674913123,1.31386514,0,0.192786471,0.339657535,0.606243169,40.21935032,79.78722413,98.04989711,116.2791162,21.52944872,7.021716145
MNOP,mammal_thylacine,block_04,4/10/2024,663178b4-4750-34d4-90da-7cb074beb55e,2024-04-10 16:17:10.545409-04:00,2024-04-10 16:27:26.081931-04:00,7,14,750.880196,300,450.880196,1043.665439,840,203.6654387,24,12,12,128,96,32,30,20,10,4.313028996,0.207948668,1.219879193,0.048737969,2,5,7,13,1,14,0,1030,186,190,49,214,32,0,44,1,151,105,37,10,0.141306202,0.148288047,5.729888886,0.410408714,2.015304565,5.516220093,5.767623901,6.001464844,7.266845703,0.131559437,0.109867591,1.53E-05,0.050582886,0.109100342,0.187580109,2.875030518,0.732810511,1.402907078,0,0.20696909,0.365500563,0.656163403,30.05341305,77.31958535,96.84481355,117.1874808,20.46866255,6.96428417
MTYH,reptile_gila,baseline,,,,,,,,,,,,,,,,,,,,,,,,,,,,,,,,,,,,,,,,,,,,,,0.229777366,0.287012987,4.079920745,0.449934032,1.867279053,3.731954575,4.049358368,4.361925125,6.42755127,0.240669342,0.110742507,0.000106812,0.165874481,0.232131958,0.303749085,2.22895813,0.846644221,1.975088472,0.002934452,0.169405854,0.309745185,0.58703947,32.59144056,72.11538313,95.13355976,118.1102602,20.27467244,6.888038666
MTYH,reptile_gila,block_01,2/21/2024,ab54cf6b-4602-187d-4dbf-308f2571bdbb,2024-02-21 11:04:33.933170-05:00,2024-02-21 11:14:51.559857-05:00,17,7,1185,1185,0,650.213622,270,380.213622,24,24,0,213,213,0,79,79,0,5.173027765,0.344868518,1.918634711,0.127908981,12,0,12,3,1,4,0,1170,176,307,54,315,23,0,0,0,53,150,74,2,0.115660101,0.110276505,4.447640871,0.327976862,1.572280884,4.231994629,4.437133789,4.674224854,6.352401733,0.179808986,0.076914942,1.53E-05,0.131408691,0.180458069,0.226974487,2.110153198,0.635988481,1.617772125,0.001377431,0.150507652,0.261291999,0.458274279,36.62367209,87.71926571,114.4597968,142.8572791,13.08334176,7.078350051
MTYH,reptile_gila,block_02,2/21/2024,69d133a0-4a25-7ea2-81fb-2883be8d8185,2024-02-21 11:20:37.724183-05:00,2024-02-21 11:30:54.977712-05:00,19,2,1301.087346,1125,176.0873464,302.04389,180,122.04389,26,21,5,259,252,7,78,75,3,6.679760568,0.419600679,2.107865383,0.126366228,8,1,9,0,0,0,0,1199,178,320,57,290,54,26,0,0,89,101,74,1,0.144387719,0.142362006,4.694709296,0.297387975,1.84413147,4.512809753,4.701499939,4.879104614,5.639953613,0.105033382,0.069587939,0,0.056167603,0.099861145,0.143417358,1.739273071,0.648250774,1.568874221,0.001474712,0.159962927,0.275988339,0.48317161,38.34709095,93.16769414,112.4944663,130.434907,13.54296501,7.04419884
MTYH,reptile_gila,block_03,2/21/2024,3ff660ba-4d88-cf89-379c-6fa45712769a,2024-02-21 11:34:24.978245-05:00,2024-02-21 11:44:41.321190-05:00,19,5,1285.307604,1095,190.3076045,439.5811075,270,169.5811075,30,26,4,270,256,14,78,73,5,6.891098627,0.438067803,2.085377329,0.126552921,5,0,5,0,0,0,0,1050,140,280,71,243,40,12,0,0,113,81,64,3,0.130202881,0.126165196,4.474621632,0.295311209,1.814483643,4.282447815,4.483543396,4.664869308,5.747528076,0.204945369,0.081003975,0,0.151599884,0.2059021,0.256576538,1.844284058,0.639195063,1.464738774,0.003167815,0.165006899,0.28740257,0.50694902,38.45794893,90.36144111,110.3092771,129.3103485,14.96892373,6.984315031
MTYH,reptile_gila,block_04,2/21/2024,87069e81-4953-3251-444b-88a144ec20b5,2024-02-21 11:48:22.906621-05:00,2024-02-21 11:58:38.671666-05:00,23,9,1628.204248,1290,338.204248,960.007502,465,495.007502,33,29,4,289,278,11,91,86,5,7.811797028,0.469334858,2.644197265,0.14778364,17,2,19,3,3,6,0,1021,157,264,49,206,53,15,0,0,95,98,69,5,0.115579274,0.112748046,4.510994768,0.307053447,1.693618774,4.328044891,4.523468018,4.711753845,5.791183472,0.163910325,0.078912405,4.58E-05,0.110931397,0.164154053,0.213500977,1.845672607,0.63946465,1.519322636,0.001408158,0.156382932,0.272976567,0.479432132,29.51991861,93.74998463,116.6925219,138.888914,12.98678588,6.753028089
NMBV,reptile_gila,baseline,,,,,,,,,,,,,,,,,,,,,,,,,,,,,,,,,,,,,,,,,,,,,,0.089135462,0.087487084,3.844164741,0.232232764,1.198196411,3.723247528,3.861686707,3.984041214,5.687057495,0.403265377,0.124922426,0.000152588,0.319976807,0.394485474,0.476303101,1.77911377,0.666834625,1.764593376,0.002580346,0.181384127,0.314371672,0.531781288,76.27376981,99.33773329,107.6754231,115.3846196,7.117400906,6.949578358
NMBV,reptile_gila,block_01,3/14/2024,,,,11,5,,,,,,,,,,,,,,,,,,,,,,,,,,,,,,,,,,,,,,,,0.048372323,0.051367744,4.361731268,0.314987961,1.777542114,4.156173706,4.367767334,4.587669373,5.324714661,0.380544509,0.088491095,9.16E-05,0.333251953,0.387313843,0.435913086,1.770523071,0.790874571,5.013556999,0.001569846,0.251176065,0.421981436,0.675197478,685.0221552,105.6337883,123.847671,141.5095053,6.383959078,7.033726796
NMBV,reptile_gila,block_02,3/14/2024,,,,11,8,,,,,,,,,,,,,,,,,,,,,,,,,,,,,,,,,,,,,,,,0.028783153,0.031285511,4.436372172,0.320709838,2.196365356,4.224824905,4.429843903,4.650505066,5.306854248,0.424099572,0.079567489,0.000106812,0.381126404,0.428710938,0.471405029,1.989700317,0.786729249,1.513805055,0.002476961,0.26314268,0.44020277,0.705353104,42.28501341,97.40256966,110.0700637,121.9512531,9.84722352,7.154458319
NMBV,reptile_gila,block_03,3/14/2024,,,,18,4,,,,,,,,,,,,,,,,,,,,,,,,,,,,,,,,,,,,,,,,0.027610958,0.0283766,4.224725277,0.300217784,1.439743042,4.008651733,4.222381592,4.44275856,5.024276733,0.33156131,0.078830562,0.00340271,0.278949738,0.330062866,0.381248474,1.767318726,0.807090418,1.674427332,0.001403159,0.253436621,0.425462302,0.692904354,95.56691981,89.28566005,103.4018147,115.3846725,13.84634043,7.221822535
NMBV,reptile_gila,block_04,3/14/2024,,,,14,7,,,,,,,,,,,,,,,,,,,,,,,,,,,,,,,,,,,,,,,,0.024876465,0.027129154,4.226601588,0.278613745,1.358032227,4.05550766,4.229171753,4.408401489,5.169662476,0.375388267,0.078935433,0.017379761,0.328353882,0.376480103,0.424438477,2.889984131,0.742316854,1.439135976,0.00116964,0.24504732,0.412830992,0.666616691,31.17348221,86.70518343,100.6668793,113.6363899,16.49767736,7.134116643
OPKJ,mammal_thylacine,baseline,,,,,,,,,,,,,,,,,,,,,,,,,,,,,,,,,,,,,,,,,,,,,,0.051878264,0.065739253,4.982126029,0.38436479,1.638793945,4.778553009,5.050491333,5.242275238,5.81804657,0.179511152,0.115508233,1.53E-05,0.095947266,0.161834717,0.242111206,1.782455444,1.079777304,4.013746138,0.001434572,0.267152761,0.542941759,1.135115501,458.7074033,58.13953123,65.75930872,75.00000447,26.69987837,7.784503376
OPKJ,mammal_thylacine,block_01,3/26/2024,,,,,,,,,,,,,,,,,,,,,,,,,,,,,,,,,,,,,,,,,,,,,0.031136018,0.035846276,5.586841451,0.328760986,2.004104614,5.389532089,5.64006424,5.820108414,6.31552124,0.093368191,0.093498573,0,0.033672333,0.070877075,0.127368927,1.637802124,0.783733473,1.448906683,0.002263602,0.225991069,0.407735423,0.751071704,66.35924508,57.47125618,70.82582754,88.75738092,31.5927058,8.195261964
OPKJ,mammal_thylacine,block_02,3/26/2024,,,,17,11,,,,,,,,,,,,,,,,,,,,,,,,,,,,,,,,,,,,,,,,0.037878788,0.03708261,5.650176602,0.343750886,1.7056427,5.4793396,5.699783325,5.888238907,6.750167847,0.110911017,0.097833257,1.53E-05,0.043136597,0.089920044,0.152648926,2.313201904,0.713329536,1.297638681,0.001093037,0.209508833,0.376528929,0.682450555,40.05308245,59.52380153,74.42839155,90.36147356,30.94022641,8.232827752
OPKJ,mammal_thylacine,block_03,3/26/2024,,,,12,12,,,,,,,,,,,,,,,,,,,,,,,,,,,,,,,,,,,,,,,,0.041901654,0.044733495,5.515085417,0.343931435,1.333526611,5.32824707,5.573127747,5.74672699,6.810241699,0.11913029,0.112261346,0,0.045379639,0.095718384,0.162704468,2.658859253,0.680907021,1.724018476,0.001204735,0.191767782,0.343189632,0.618731991,207.7391337,57.69229658,73.31329543,89.82039365,33.12016711,8.050060056
OPKJ,mammal_thylacine,block_04,3/26/2024,,,,8,17,,,,,,,,,,,,,,,,,,,,,,,,,,,,,,,,,,,,,,,,0.054467237,0.058258798,5.593893174,0.331316004,1.532287598,5.430580139,5.641517639,5.81086731,7.774154663,0.151791667,0.115099179,1.53E-05,0.073257446,0.137863159,0.207397461,3.395111084,0.701759931,1.54857298,0.000591934,0.203637207,0.368848814,0.660745486,159.6408538,58.13953123,75.8468839,97.40260736,28.73599135,8.063666337
PKJH,reptile_gila,baseline,,,,,,,,,,,,,,,,,,,,,,,,,,,,,,,,,,,,,,,,,,,,,,0.119399417,0.10342849,4.926634406,0.428089575,1.757507324,4.604059219,4.914646149,5.205373764,6.62802124,0.15359546,0.093906967,4.58E-05,0.094577789,0.144096375,0.197738648,1.304672241,0.886106701,3.817929616,0.001554709,0.164937616,0.301515142,0.568378451,293.5714277,74.25741768,92.49477359,107.1428681,23.15093763,8.600121575
PKJH,reptile_gila,block_01,2/29/2024,c5bb93cd-4cce-11d8-6d58-2e9e469acb71,2024-02-29 13:58:29.569453-05:00,2024-02-29 14:09:14.265674-05:00,18,12,1089.107487,900,189.107487,957.913214,570,387.913214,32,24,8,177,163,14,65,60,5,4.556625539,0.27454791,1.689334374,0.100822679,1,0,1,1,1,2,0,1348,175,264,57,366,39,0,32,13,119,163,71,16,0.063106106,0.067338471,5.481190825,0.433784015,1.370620728,5.209194183,5.486984253,5.780067444,7.407196045,0.094313366,0.074327741,0,0.041305542,0.082427979,0.132911682,1.401794434,0.77474502,1.767758785,0.001291827,0.208135149,0.357364449,0.612797436,99.78035362,78.53401318,98.51089333,116.2791162,25.86342889,8.858083865
PKJH,reptile_gila,block_02,2/29/2024,719e2eb0-4197-b167-41f9-8db24f75b605,2024-02-29 14:15:19.896452-05:00,2024-02-29 14:25:38.599553-05:00,19,11,1397.885931,570,827.885931,801.524982,540,261.524982,30,17,13,166,147,19,50,38,12,5.373532825,0.268303165,2.259380838,0.080814206,3,0,3,3,2,5,0,1222,172,333,71,310,38,0,29,6,59,132,46,22,0.123807449,0.143610678,5.516553723,0.433447157,1.283050537,5.23935318,5.532806396,5.804401398,8.250076294,0.118665806,0.085743363,0,0.055782318,0.106712341,0.163345337,1.68321228,0.830924983,1.518029342,0.002043166,0.240277319,0.42867508,0.780429852,38.89957287,71.77033788,99.15807676,126.0504646,29.18696434,8.858293254
PKJH,reptile_gila,block_03,2/29/2024,f85b8323-4ca7-ee3c-bb78-94b36cadb805,2024-02-29 14:30:09.862440-05:00,2024-02-29 14:40:26.996906-05:00,24,8,1553.289662,975,578.2896622,788.064482,450,338.064482,29,18,11,211,179,32,78,65,13,6.466025287,0.341902797,2.516938767,0.126390607,5,1,6,1,1,2,0,1384,188,315,79,394,75,0,34,6,69,139,64,21,0.206160693,0.242679785,5.498098615,0.524867288,1.597473145,5.205814362,5.537910461,5.86690712,8.387741089,0.100739852,0.082731026,0,0.039733887,0.082847595,0.140151978,1.614883423,0.904499371,1.753576137,0.003465342,0.261715941,0.481525846,0.930450567,149.2195701,78.53401318,100.750846,120,23.19829058,8.827187062
PKJH,reptile_gila,block_04,2/29/2024,0538e108-4c09-5ff7-ab2b-959e4a36ad6b,2024-02-29 14:44:56.836748-05:00,2024-02-29 14:55:13.438114-05:00,15,11,976.3237341,585,391.3237341,918.037361,675,243.037361,33,24,9,261,244,17,48,39,9,7.089746257,0.423288067,1.583395347,0.077846081,2,0,2,3,0,3,0,1366,187,392,65,265,60,0,34,0,95,148,92,24,0.27550552,0.302321649,5.587916704,0.476892459,1.326065063,5.307189941,5.578575134,5.911417007,8.898391724,0.120435299,0.097568582,0,0.050380707,0.100624085,0.166751862,2.283737183,0.924045545,1.472866116,0.003326298,0.273020646,0.501940305,0.987380749,31.6398937,85.22727319,104.7409558,121.9512531,17.55915487,8.518550673
QAXY,mammal_thylacine,baseline,,,,,,,,,,,,,,,,,,,,,,,,,,,,,,,,,,,,,,,,,,,,,,0.066963466,0.065265284,4.28451882,0.332152889,1.820724487,4.041503906,4.304107666,4.536849976,5.538772583,0.164741597,0.085309583,0,0.105796814,0.158370972,0.214660645,2.496414185,0.727589455,1.926926899,0.001929438,0.197413761,0.35967587,0.647402711,114.163213,56.8181693,69.63491518,83.33333002,54.80364314,8.155443882
QAXY,mammal_thylacine,block_01,3/5/2024,d682ff1b-4c8a-9dae-d9d5-4582be12e778,2024-03-05 13:58:16.141846-05:00,2024-03-05 14:08:31.532598-05:00,9,6,610.912121,465,145.912121,570.780497,390,180.780497,24,19,5,170,164,6,34,31,3,4.370526042,0.276247245,0.992722297,0.055249449,6,2,8,2,2,4,0,998,176,227,90,199,54,0,12,3,97,48,47,21,0.083637626,0.082004732,5.104262294,0.378467338,1.554397583,4.884874344,5.103439331,5.356128693,7.065963745,0.526013864,0.152166827,0.000320435,0.439796448,0.539413452,0.63495636,2.829025269,0.938835775,5.183636475,0.001814592,0.207896421,0.411833037,0.825377107,836.2221622,63.02518496,75.376496,88.23528546,42.7367706,7.969145445
QAXY,mammal_thylacine,block_02,3/5/2024,a8c25021-42f3-e12a-9934-d48ca28b88aa,2024-03-05 14:12:58.312074-05:00,2024-03-05 14:23:18.954013-05:00,15,8,1020.983027,885,135.9830265,689.370146,420,269.370146,33,29,4,236,227,9,63,59,4,5.925603828,0.380251455,1.645043563,0.101507804,9,2,11,3,1,4,0,930,123,188,72,247,40,0,25,4,69,66,50,42,0.07313337,0.073602807,5.053965162,0.415937417,1.298614502,4.780277252,5.054695129,5.330471039,6.395950317,0.6227085,0.150717555,0.017044067,0.569381714,0.654098511,0.718734741,2.458312988,0.836444538,2.135335726,0.00142105,0.190542783,0.378957333,0.764960982,193.1797889,63.2911423,77.40688833,92.02454688,41.8385176,7.894455748
QAXY,mammal_thylacine,block_03,3/5/2024,4ca89552-4100-084d-279e-7db3ac4df894,2024-03-05 14:29:03.133666-05:00,2024-03-05 14:39:18.350255-05:00,14,7,909.249755,675,234.249755,748.321295,360,388.321295,24,21,3,193,184,9,50,45,5,5.102490476,0.313710657,1.477934391,0.081272191,11,2,13,3,3,6,0,955,144,232,49,196,45,13,17,2,96,75,44,35,0.086467786,0.062752891,5.001386979,0.459589656,2.456390381,4.728919983,5.031517029,5.323554993,6.755310059,0.658771897,0.107530669,0.053817749,0.598022461,0.662109375,0.725021362,3.299087524,0.860773905,2.732348367,0.001319282,0.190500937,0.373558416,0.757555998,339.0036032,66.96427474,79.99552939,93.75001956,36.61672815,7.848915748
QAXY,mammal_thylacine,block_04,3/5/2024,f74ac41e-4abb-2c24-95ba-f6bd7a3aa0c5,2024-03-05 14:42:49.125351-05:00,2024-03-05 14:53:04.736432-05:00,13,6,1149.990455,435,714.990455,605.45201,390,215.45201,24,12,12,121,95,26,41,29,12,4.451029624,0.196552667,1.868047036,0.066600491,7,5,12,2,1,3,0,1008,146,193,77,247,65,20,1,0,115,64,20,56,0.113398604,0.069403375,4.889496014,0.42336011,1.692214966,4.595962524,4.927597046,5.200050354,6.260131836,0.682067444,0.109360233,0.0078125,0.615417481,0.687973023,0.754425049,2.728851318,0.884738215,2.294884982,0.001348915,0.191613745,0.368986022,0.739007486,178.1603336,63.2911423,79.52629944,94.93671344,40.38584491,7.871984229
QAZW,reptile_gila,baseline,,,,,,,,,,,,,,,,,,,,,,,,,,,,,,,,,,,,,,,,,,,,,,0.033199771,0.034917001,2.781742474,0.167240166,1.787399292,2.676036835,2.778358459,2.886959076,3.72744751,0.150874227,0.038587801,0.000488281,0.128814697,0.149459839,0.17175293,1.018890381,0.559343106,0.933099105,0.002064243,0.226619562,0.376660449,0.600791188,23.63925899,66.96427474,72.54144594,79.36509999,22.42684135,7.590533483
QAZW,reptile_gila,block_01,4/16/2024,1263e8ef-4b1f-9a88-a07b-85971cac44ab,2024-04-16 10:57:55.237102-04:00,2024-04-16 11:08:10.982526-04:00,13,2,988.8174546,825,163.8174546,285,285,0,25,20,5,207,197,10,59,55,4,5.574163268,0.336177894,1.60588681,0.09581882,12,1,13,2,0,2,0,1124,215,276,54,306,56,0,3,18,53,71,44,1,0.067670081,0.065205837,3.317408048,0.208594915,1.894515991,3.173309326,3.302398682,3.45501709,4.049102783,0.063436679,0.055931518,0,0.022193909,0.049285889,0.092124939,1.376617432,0.941566541,1.867277059,0.001335331,0.269598259,0.462090214,0.770934713,34.34505601,73.89162232,84.82338487,95.54143435,20.42447418,7.706736963
QAZW,reptile_gila,block_02,4/16/2024,6ee85647-4297-186c-24fa-c4970441459c,2024-04-16 11:12:32.018475-04:00,2024-04-16 11:22:47.387228-04:00,23,4,1530.794882,1245,285.794882,495,495,0,31,26,5,347,338,9,87,83,4,9.144796457,0.563889535,2.487605805,0.141378644,20,3,23,4,0,4,0,1228,228,349,74,269,76,0,1,17,48,102,57,5,0.018401514,0.018167961,3.350573946,0.223058887,2.007316589,3.205993652,3.33165741,3.493041992,4.025520325,0.05709214,0.045988123,0,0.024276733,0.049957275,0.080657959,1.640655518,0.840267886,1.956666788,0,0.241967269,0.408537033,0.682531323,158.4456677,71.77033788,83.34027684,94.93674926,19.99347402,7.741416625
QAZW,reptile_gila,block_03,4/16/2024,b8103d26-48b2-edb7-9cf6-febff2e0b27b,2024-04-16 11:27:04.499339-04:00,2024-04-16 11:37:19.733358-04:00,20,3,1444.914803,1125,319.9148025,586.809811,540,46.809811,28,21,7,268,251,17,84,75,9,7.146512173,0.435606601,2.348561292,0.136533412,16,4,20,3,0,3,0,1278,198,347,74,338,74,0,3,38,62,90,45,3,0.016768481,0.017337323,3.175575163,0.206022972,1.894454956,3.043926239,3.157352448,3.293340683,4.148628235,0.058786464,0.046778218,0,0.025344849,0.052253723,0.084533691,1.734466553,0.915743182,7.036977306,0.002168857,0.266977702,0.451094602,0.747155586,1355.886097,68.80735992,77.24726482,86.20697286,22.24511335,7.541113034
QAZW,reptile_gila,block_04,4/16/2024,7dcb719f-46a8-2478-bac5-4da70d64241f,2024-04-16 11:41:35.548627-04:00,2024-04-16 11:51:51.212965-04:00,20,4,1489.29674,1035,454.29674,534.865155,240,294.865155,32,27,5,295,285,10,77,69,8,7.775501854,0.4791572,2.419007644,0.12506815,14,6,20,1,3,4,0,1159,176,282,62,245,84,0,0,34,125,97,43,8,0.02389733,0.022028814,3.28217607,0.234324022,1.734222412,3.125024796,3.261554718,3.426073074,4.116744995,0.054919174,0.047980909,0,0.023757935,0.047821045,0.076141357,1.310821533,0.903866527,1.863439167,0.00033018,0.254613217,0.425736888,0.704299165,39.60687699,69.76745037,79.0807037,91.46342873,19.34133218,7.464928835
QPOI,reptile_komodo,baseline,,,,,,,,,,,,,,,,,,,,,,,,,,,,,,,,,,,,,,,,,,,,,,0.129668951,0.136859377,3.788371584,0.334197623,1.43598938,3.570178986,3.764328003,3.988941193,5.485549927,0.338002343,0.11659495,0,0.269706726,0.338607788,0.405174255,1.754241943,0.774244145,1.592849504,0.000630286,0.208485591,0.376893125,0.701355546,73.31045706,45.0450364,56.07641459,75.00000447,59.06623945,9.099896389
QPOI,reptile_komodo,block_01,4/9/2024,9e78a544-4fad-2033-7311-4f8a28b2f34f,2024-04-09 12:45:55.566185-04:00,2024-04-09 12:56:11.552493-04:00,22,4,1348.690997,795,553.690997,697.4535666,375,322.4535666,29,20,9,242,224,18,63,53,10,6.959842154,0.392865875,2.189482103,0.102275001,15,7,22,2,2,4,0,1273,252,278,64,300,64,36,0,0,124,96,44,0,0.056631455,0.056386933,4.317184214,0.427870548,1.625411987,4.02274704,4.334453583,4.623968124,5.619094849,0.087052695,0.076070425,0,0.034103394,0.071273804,0.124065399,1.543273926,0.889932122,1.844731768,0.003199285,0.239073519,0.421946508,0.752532477,107.5709983,44.24778935,56.70957391,70.09346232,63.34200898,9.143683073
QPOI,reptile_komodo,block_02,4/9/2024,505ab3c0-4bfb-f248-a0ff-53be350d22d6,2024-04-09 13:00:27.405583-04:00,2024-04-09 13:10:42.868378-04:00,,,1026.123033,720,306.123033,657.886332,405,252.886332,25,20,5,188,175,13,54,48,6,5.447745248,0.305461194,1.66723812,0.087738853,14,3,17,3,2,5,0,1169,225,214,47,224,42,51,0,0,112,175,54,14,0.034558169,0.034224573,4.171905154,0.412504863,1.505310059,3.872068405,4.151935577,4.466207504,5.42767334,0.093700678,0.080759288,0,0.03477478,0.077056885,0.135169983,1.783493042,0.786972437,1.749550134,0.002361685,0.214522653,0.373278697,0.649033588,60.80620355,43.22766535,55.50662081,68.49315635,65.2207515,9.248304124
QPOI,reptile_komodo,block_03,4/9/2024,e27612de-4620-d131-fe94-1d8df7bf34e9,2024-04-09 13:15:14.374021-04:00,2024-04-09 13:25:29.235641-04:00,15,3,1196.055084,855,341.055084,402.1514,315,87.1514,21,20,1,265,254,11,62,57,5,7.25238492,0.430991286,1.94524271,0.100835697,12,3,15,2,1,3,0,1139,168,193,52,213,35,47,0,0,136,204,54,27,0.060308276,0.063924777,4.078338374,0.424434445,1.628921509,3.772102356,4.076179504,4.401077271,5.543014526,0.135801908,0.104892975,1.53E-05,0.06526947,0.118896484,0.181602478,2.21182251,0.803090824,1.626882504,0.000713658,0.217145386,0.388018377,0.686299737,52.72594009,40.43126123,52.02497718,67.87331664,74.67381923,9.283162683
QPOI,reptile_komodo,block_04,4/9/2024,5d02a094-4bec-a7f8-e7d4-979a9b28ba7c,2024-04-09 13:29:13.404374-04:00,2024-04-09 13:39:30.583512-04:00,7,8,736.400751,465,271.400751,591.142916,450,141.142916,21,16,5,156,143,13,35,31,4,4.370188645,0.252762918,1.193171813,0.056709629,5,2,7,6,2,8,0,941,147,195,40,159,15,29,0,0,202,70,28,44,0.066660983,0.066989842,4.049783905,0.342801152,1.42048645,3.82598877,4.046482086,4.278949738,5.932640076,0.145059777,0.096842752,0,0.073524475,0.136047363,0.20350647,1.888168335,0.844077415,1.64116394,0.00154585,0.249821718,0.4299233,0.735125224,37.29098804,41.78272664,55.27569126,71.09003888,50.95917489,8.915039638
QWER,reptile_gila,baseline,,,,,,,,,,,,,,,,,,,,,,,,,,,,,,,,,,,,,,,,,,,,,,0.04254608,0.042641582,4.648304614,0.442185653,2.227539063,4.324819565,4.688148499,5.00147438,5.766448975,0.367907884,0.11752348,0.000183105,0.28414917,0.374588013,0.450252533,1.418518066,1.110846875,12.27584944,0.005171628,0.292667412,0.535609219,1.009789368,1673.828747,72.46378297,92.98792218,112.7819917,37.10174569,8.680588156
QWER,reptile_gila,block_01,4/10/2024,fff26c4d-43e8-7f61-fd2b-5782e7e5534a,2024-04-10 15:32:42.993256-04:00,2024-04-10 15:42:58.054943-04:00,18,6,1234.784403,840,394.784403,418.157303,375,43.157303,27,21,6,174,162,12,61,56,5,5.022607629,0.282898453,2.007578149,0.099177044,13,5,18,5,1,6,0,1470,263,297,110,362,33,133,0,0,93,88,60,0,0.017646326,0.017409714,5.718834552,0.401497999,2.141418457,5.520105362,5.789680481,6.001392365,6.674407959,0.377120068,0.085526965,0.004104614,0.319900513,0.374526978,0.430999756,1.315032959,1.037065804,1.946625227,0.000979952,0.334584979,0.591594682,1.032911427,157.1386845,100.6711483,142.7329314,178.5714468,11.63312404,8.062178952
QWER,reptile_gila,block_02,4/10/2024,5f37dd81-4a8f-f82f-c1a4-989ea7e3cc0d,2024-04-10 15:48:53.514967-04:00,2024-04-10 15:59:09.385737-04:00,19,8,1336.550466,870,466.5504657,937.761353,330,607.761353,32,21,11,219,199,20,67,58,9,6.591483216,0.35559408,2.170180062,0.108789057,15,4,19,3,4,7,0,1474,288,322,110,311,51,128,0,0,98,104,52,0,0.048320985,0.048025076,5.814621267,0.474552718,2.180801392,5.59400177,5.914810181,6.125335693,6.891571045,0.333744916,0.100740813,0.000701904,0.268722534,0.328422546,0.392910004,2.391464233,1.032253686,2.375148214,0.001791598,0.321291545,0.577411498,1.025582794,323.677379,104.1666712,148.764693,182.926791,15.80508848,8.293606324
QWER,reptile_gila,block_03,4/10/2024,39593e97-4ced-1883-561b-c1981864c0f2,2024-04-10 16:02:52.761861-04:00,2024-04-10 16:13:08.723667-04:00,,,952.7229974,720,232.7229974,674.289173,480,194.289173,22,16,6,157,145,12,54,48,6,4.290845303,0.254885934,1.546724144,0.087667773,11,3,14,4,1,5,0,1501,298,297,124,326,46,176,0,0,92,78,48,11,0.023164217,0.021514905,5.920419605,0.337132271,2.857513428,5.737186432,5.973907471,6.163097382,6.885055542,0.306861096,0.089912466,0.000274658,0.251724243,0.309539795,0.362518311,2.716903687,0.967463193,2.253109186,0.003205624,0.312345921,0.557724933,0.983411512,299.9273699,129.3103485,154.4661906,176.4706328,6.650346417,8.730395543
QWER,reptile_gila,block_04,4/10/2024,663178b4-4750-34d4-90da-7cb074beb55e,2024-04-10 16:17:10.545409-04:00,2024-04-10 16:27:26.081931-04:00,14,7,1044.653155,765,279.6531547,614.866236,465,149.866236,28,19,9,205,187,18,57,51,6,6.018897708,0.333042789,1.69714244,0.092602141,12,2,14,5,2,7,0,1469,280,291,106,307,67,137,0,0,113,92,68,3,0.032878803,0.033762837,5.772892642,0.396537668,2.633956909,5.613327026,5.814022064,6.024875641,6.766326904,0.251928173,0.099455153,1.53E-05,0.189910889,0.248947144,0.304199219,1.909729004,0.9414136,1.69094203,0.00212294,0.292791952,0.522926191,0.942488214,114.9177491,109.4890317,139.7478654,168.5392383,10.484199,8.935590581
QWRT,reptile_gila,baseline,,,,,,,,,,,,,,,,,,,,,,,,,,,,,,,,,,,,,,,,,,,,,,0.510313883,0.513745077,4.479600586,0.531854464,1.452575684,4.090753555,4.48733139,4.909288406,5.715515137,0.192243491,0.182747789,1.53E-05,0.061767578,0.14642334,0.262008667,1.431793213,1.427944289,3.131776841,0.004315097,0.253238556,0.538165808,1.211011223,55.38365629,57.69229658,69.2842368,88.75738092,31.28651694,5.42080119
QWRT,reptile_gila,block_01,3/6/2024,85a5023a-4976-0721-23b2-028c85a483dd,2024-03-06 13:26:26.617466-05:00,2024-03-06 13:36:42.000566-05:00,12,8,765,765,0,619.990292,510,109.990292,19,19,0,180,180,0,51,51,0,4.387510804,0.29250072,1.243128061,0.082875204,6,0,6,3,1,4,0,915,183,197,41,278,15,0,0,15,43,32,49,19,0.139072071,0.140128136,4.502586291,0.397466424,1.446502686,4.243690491,4.501663208,4.760757446,6.540222168,0.09075052,0.09624953,0,0.036331177,0.071365356,0.117477417,2.554412842,0.805014002,1.750961742,0.001366098,0.16868185,0.310168875,0.627468484,52.12464517,63.55932165,78.87006464,96.15387172,29.22917229,6.418928753
QWRT,reptile_gila,block_02,3/6/2024,32143347-4542-7282-6c5b-b7b56e6a33c5,2024-03-06 13:42:57.110688-05:00,2024-03-06 13:53:13.359943-05:00,8,6,732.24563,585,147.24563,484.19711,180,304.19711,21,18,3,145,139,6,41,39,2,3.79368038,0.235294402,1.188229639,0.066531521,2,0,2,1,1,2,0,986,208,225,54,188,38,0,44,73,57,47,32,12,0.11910588,0.119705386,4.53057635,0.404811795,1.35647583,4.251592636,4.50951004,4.788684845,5.75769043,0.094378037,0.111451078,0,0.032745361,0.067352295,0.120437622,2.355728149,0.858368826,1.861924148,0,0.180705872,0.334488084,0.682401165,60.09348807,63.82979954,74.90279979,90.90911193,21.49579856,6.543858724
QWRT,reptile_gila,block_03,3/6/2024,dd256e2a-4e9a-fe7f-54b8-66bfb1d5fa7e,2024-03-06 13:57:21.312206-05:00,2024-03-06 14:07:37.711329-05:00,9,7,792.1891904,600,192.1891904,589.8728093,435,154.8728093,26,21,5,156,148,8,44,40,4,3.981936962,0.253082774,1.285188705,0.071382321,4,0,4,2,1,3,0,1113,157,249,67,253,36,19,36,56,59,102,57,21,0.141824968,0.154217905,4.213450767,0.377136129,1.773422241,3.977664948,4.183559418,4.464284897,5.375419617,0.069570028,0.09846839,0,0.02041626,0.045455933,0.082733154,2.214492798,0.74909956,4.783181946,0,0.168758717,0.301048286,0.5672303,837.5973324,67.87329833,75.34119638,90.36144111,21.33460506,6.41313628
QWRT,reptile_gila,block_04,3/6/2024,0f012d24-4034-4c67-7810-53878af71db6,2024-03-06 14:13:40.557008-05:00,2024-03-06 14:23:56.074452-05:00,13,9,901.61079,735,166.61079,791.9358179,420,371.9358179,25,20,5,166,159,7,51,49,2,4.361975795,0.269691788,1.464801362,0.082857116,5,0,5,3,1,4,0,1171,172,278,48,197,39,26,73,136,64,65,49,19,0.147906173,0.151689904,4.311355051,0.395648347,1.144714355,4.060119629,4.309257507,4.568977356,5.820449829,0.096325554,0.130451106,0,0.027114868,0.059249878,0.109577179,2.455612183,0.850181377,1.977126114,0.001134419,0.188102296,0.346230094,0.682962046,123.8538613,63.2911423,74.48014495,89.28572341,23.11726802,6.431608989
QXZW,mammal_thylacine,baseline,,,,,,,,,,,,,,,,,,,,,,,,,,,,,,,,,,,,,,,,,,,,,,0.382447853,0.453418763,3.424763184,0.369432356,1.366699219,3.214550018,3.418395996,3.625812531,5.032058716,0.160874514,0.175158791,0,0.057636261,0.118209839,0.215866089,2.588363647,0.887452706,1.894299841,0,0.173150694,0.322747035,0.696380506,49.53453053,72.11538313,82.82140552,93.16769414,23.68068239,6.819921441
QXZW,mammal_thylacine,block_01,2/29/2024,c5bb93cd-4cce-11d8-6d58-2e9e469acb71,2024-02-29 13:58:29.569453-05:00,2024-02-29 14:09:14.265674-05:00,14,12,971.414043,615,356.414043,727.687753,630,97.687753,30,24,6,202,191,11,45,41,4,5.409471587,0.313325863,1.506777939,0.069800316,0,1,1,0,0,0,0,1192,168,248,25,227,28,53,0,0,229,125,74,0,0.129450297,0.130862796,4.68496827,0.680454432,1.924743652,4.358047485,4.84954071,5.167945862,6.117431641,0.130865757,0.095030376,0,0.055252075,0.114425659,0.190841675,2.299194336,0.689971033,4.979049463,0.000461629,0.166562601,0.292964639,0.532752716,1292.852203,66.96427474,86.13594746,120,31.55315368,7.014825253
QXZW,mammal_thylacine,block_02,2/29/2024,719e2eb0-4197-b167-41f9-8db24f75b605,2024-02-29 14:15:19.896452-05:00,2024-02-29 14:25:38.599553-05:00,19,7,1208.014962,900,308.014962,641.041066,330,311.041066,25,21,4,196,187,9,65,60,5,5.265597287,0.316791688,1.952495405,0.105058468,5,3,8,1,0,1,0,1169,149,246,27,269,43,55,0,0,194,131,54,0,0.087184094,0.080057492,5.010564667,0.520854199,2.346923828,4.802106857,5.098323822,5.351816177,6.117431641,0.122372937,0.084054092,1.53E-05,0.056892395,0.108795166,0.174713135,1.320648193,0.62430151,2.587230528,0.000457412,0.164697636,0.289605482,0.523003123,431.9289371,62.24066476,89.83811834,122.9508408,33.8988406,7.191232496
QXZW,mammal_thylacine,block_03,2/29/2024,f85b8323-4ca7-ee3c-bb78-94b36cadb805,2024-02-29 14:30:09.862440-05:00,2024-02-29 14:40:26.996906-05:00,7,13,812.542347,495,317.542347,916.7255232,600,316.7255232,28,20,8,175,147,28,38,33,5,6.58276185,0.28356867,1.316637446,0.061574911,1,1,2,2,1,3,1,1154,159,224,40,210,48,38,0,0,209,150,75,0,0.066144353,0.064341676,4.866218692,0.409809103,2.160568237,4.651826859,4.905071259,5.146259308,6.046035767,0.147169475,0.099836333,1.53E-05,0.070266724,0.132278442,0.209976196,2.299194336,0.627336549,3.19072072,0.001857289,0.162065524,0.285439182,0.506344142,555.7631731,73.17073766,88.41535024,104.1666712,28.0692671,6.932387641
QXZW,mammal_thylacine,block_04,2/29/2024,0538e108-4c09-5ff7-ab2b-959e4a36ad6b,2024-02-29 14:44:56.836748-05:00,2024-02-29 14:55:13.438114-05:00,11,5,866.585262,495,371.585262,536.2976371,375,161.2976371,21,16,5,142,130,12,38,33,5,4.255938736,0.230294657,1.405422222,0.061628148,1,0,1,2,0,2,0,914,143,177,53,201,31,24,0,0,156,92,36,0,0.086491868,0.085016552,4.967972066,0.482016177,1.724014282,4.735305786,5.055999756,5.300861359,6.182823181,0.115085838,0.084179036,1.53E-05,0.049808502,0.103927612,0.163993835,2.745834351,0.622007493,1.558967798,0.001981535,0.164032154,0.288351611,0.5099476,134.1582625,69.44443785,93.15807183,126.0504015,26.33472316,7.268026798
RQWE,reptile_gila,baseline,,,,,,,,,,,,,,,,,,,,,,,,,,,,,,,,,,,,,,,,,,,,,,0.074216511,0.069701892,4.016130888,0.32265557,1.828872681,3.773544312,4.04309845,4.248386383,5.395843506,0.259391517,0.076179523,0.000335693,0.211257935,0.253334045,0.304317474,1.824005127,0.817572979,5.769174057,0.001820909,0.16555584,0.29423683,0.532469561,674.2906836,64.10255666,77.29735963,90.90911193,44.28921793,7.31851699
RQWE,reptile_gila,block_01,3/5/2024,d682ff1b-4c8a-9dae-d9d5-4582be12e778,2024-03-05 13:58:16.141846-05:00,2024-03-05 14:08:31.532598-05:00,7,9,553.884078,435,118.884078,649.6033516,405,244.6033516,27,21,6,189,181,8,32,29,3,4.853837373,0.307121937,0.900052651,0.051999481,3,1,4,6,2,8,0,1137,228,251,139,262,17,12,0,0,62,48,116,0,0.105256456,0.117964651,4.587086395,0.388222334,1.551467896,4.345626831,4.620243073,4.864067078,5.887924194,0.276519421,0.075457548,0.000259399,0.23123169,0.276382446,0.32175827,3.221359253,0.743486354,2.361782293,0.001816043,0.214919739,0.364931603,0.611048791,274.2677928,69.44441869,87.34581709,105.6337883,31.63352024,7.285449673
RQWE,reptile_gila,block_02,3/5/2024,a8c25021-42f3-e12a-9934-d48ca28b88aa,2024-03-05 14:12:58.312074-05:00,2024-03-05 14:23:18.954013-05:00,10,12,831.863282,570,261.863282,732.0923815,720,12.0923815,26,18,8,203,192,11,44,38,6,5.323473457,0.3270807,1.340327216,0.070894339,5,2,7,10,0,10,0,1233,200,361,142,211,8,35,0,0,75,71,129,0,0.063049413,0.06258609,4.669194395,0.36198485,2.713043213,4.430807114,4.649082184,4.921129227,5.948745728,0.279410518,0.065180653,7.63E-05,0.241218567,0.280639648,0.322006226,0.834747315,0.659015827,1.712059662,0.001162134,0.185856322,0.318833452,0.53747093,74.87368819,69.76739235,89.50116785,110.2941358,30.26512246,7.365130837
RQWE,reptile_gila,block_03,3/5/2024,4ca89552-4100-084d-279e-7db3ac4df894,2024-03-05 14:29:03.133666-05:00,2024-03-05 14:39:18.350255-05:00,6,12,405,405,0,737.2379536,570,167.2379536,27,24,3,172,166,6,27,27,0,4.449433185,0.279576336,0.658304745,0.043886983,5,0,5,10,2,12,0,1129,189,244,135,262,11,36,0,0,85,71,94,0,0.055229543,0.054635133,4.517610458,0.349665698,2.115890503,4.284038544,4.513019562,4.7541008,6.592636108,0.234483442,0.066960371,0.001235962,0.190200806,0.23197937,0.276977539,1.252075195,0.687028284,1.521333387,0.001123519,0.217016964,0.375216827,0.641914493,45.36127096,69.44443785,83.41550665,98.03921752,30.83727088,7.393007268
RQWE,reptile_gila,block_04,3/5/2024,f74ac41e-4abb-2c24-95ba-f6bd7a3aa0c5,2024-03-05 14:42:49.125351-05:00,2024-03-05 14:53:04.736432-05:00,7,12,592.780021,555,37.780021,934.908929,360,574.908929,24,20,4,206,200,6,39,37,2,5.193457735,0.334626855,0.962913176,0.063351686,3,0,3,6,3,9,0,866,114,257,81,147,13,31,0,0,87,56,79,0,0.067188007,0.067524757,4.295893635,0.366350169,1.714675903,4.041065216,4.26524353,4.533824921,6.601089478,0.228113146,0.07100902,0.000137329,0.178024292,0.223342896,0.273620606,1.58404541,0.839768707,2.292480531,0.000713081,0.236273391,0.405045776,0.679551728,159.625986,67.87331664,83.99694966,101.35135,29.67989359,7.375802101
SBQRG,reptile_komodo,baseline,,,,,,,,,,,,,,,,,,,,,,,,,,,,,,,,,,,,,,,,,,,,,,0.157541156,0.149572305,3.226556829,0.285339512,1.804840088,3.02929306,3.189929962,3.3979702,4.493423462,0.147647864,0.073828956,1.53E-05,0.098114014,0.140304565,0.190124512,1.178207397,0.738826847,1.982968746,0.00101425,0.193085093,0.33820193,0.59218526,112.0464278,74.62685275,97.33646898,135.1351334,20.09488824,7.993091002
SBQRG,reptile_komodo,block_01,11/29/2023,b8944796-41be-f0ad-8f57-35adbb4944c5,2023-11-29 12:52:05.310171-05:00,2023-11-29 13:02:20.369341-05:00,8,4,779.798372,660,119.798372,542.810332,360,182.810332,16,16,0,146,143,3,46,44,2,3.721733818,0.237375536,1.267842852,0.074789552,5,0,5,0,0,0,0,616,94,115,18,153,6,0,4,1,15,144,44,10,0.0655494,0.066672371,3.787812409,0.330647283,1.793991089,3.579368591,3.778274536,3.976322174,5.027549744,0.196661232,0.08334095,7.63E-05,0.13841629,0.19972229,0.254135132,1.242874146,0.934393182,2.099375044,0.001254581,0.224377424,0.395053812,0.713285472,66.67668063,49.99999801,96.49288775,148.5148354,24.53001046,8.198565536
SBQRG,reptile_komodo,block_02,11/29/2023,cd9f5b3e-459d-c4b2-e21f-3f9e38f88056,2023-11-29 13:16:55.523427-05:00,2023-11-29 13:27:11.089638-05:00,12,7,963.656349,510,453.656349,667.366717,525,142.366717,23,16,7,127,116,11,41,34,7,3.762105029,0.206314118,1.565479605,0.066605345,0,2,2,0,0,0,0,684,113,164,44,137,5,0,2,1,17,114,63,13,0.039318331,0.037256102,3.895101389,0.377782649,2.179092407,3.667554855,3.899971008,4.108114243,5.302497864,0.18720387,0.075308877,4.58E-05,0.139312744,0.185928345,0.233043671,1.460388184,0.890025192,2.1807099,0.001481665,0.212547547,0.376127639,0.6787646,112.5602981,1.407657663,74.86933515,263.1579806,3168.139954,10.1997704
SBQRG,reptile_komodo,block_03,11/29/2023,9dad9043-4b16-3913-ef6c-b4b80700c54d,2023-11-29 13:32:35.035246-05:00,2023-11-29 13:42:51.126542-05:00,8,8,655.1953689,555,100.1953689,692.752768,360,332.752768,22,15,7,126,117,9,39,37,2,3.40076474,0.204515144,1.063471231,0.063302306,3,0,3,4,0,4,0,704,101,137,37,151,4,0,8,5,11,136,73,26,0.109499136,0.154814335,3.792716763,0.323680164,1.495452881,3.580856323,3.766960144,3.964771271,5.073150635,0.182765791,0.073560564,1.53E-05,0.13621521,0.181472778,0.226409912,1.465484619,0.926528048,2.480172692,0.002598514,0.227131162,0.402819391,0.717702163,248.2457841,18.96333734,115.9168232,238.0951498,61.56545654,1.104249221
SBTBT,mammal_thylacine,baseline,,,,,,,,,,,,,,,,,,,,,,,,,,,,,,,,,,,,,,,,,,,,,,0.223168853,0.287988423,3.751598541,0.369676014,2.114990234,3.476600647,3.694339752,3.996866226,6.66494751,0.288488777,0.141626059,0.000442505,0.198982239,0.256149292,0.337150574,1.472579956,0.932097497,2.115828597,0.004224663,0.235695627,0.43579312,0.813017956,34.80123305,38.07106659,72.99789453,138.8888374,50.89988778,6.510344814
SBTBT,mammal_thylacine,block_01,11/29/2023,b8944796-41be-f0ad-8f57-35adbb4944c5,2023-11-29 12:52:05.310171-05:00,2023-11-29 13:02:20.369341-05:00,14,8,1516.424634,1005,511.4246344,785.916747,510,275.916747,27,18,9,230,220,10,74,67,7,6.295178891,0.373947762,2.465493904,0.120313628,6,1,7,4,1,5,0,707,134,142,76,157,25,0,7,0,43,73,37,5,0.177978867,0.186634939,4.48123227,0.488430104,1.366729736,4.319643021,4.541919708,4.776172638,6.598220825,0.154856518,0.078865681,1.53E-05,0.095947266,0.15524292,0.211029053,1.294555664,0.858912698,1.956539269,0,0.239682129,0.432985602,0.773481162,55.29701357,62.76148474,95.61831927,130.4348394,31.3549798,6.219427158
SBTBT,mammal_thylacine,block_02,11/29/2023,cd9f5b3e-459d-c4b2-e21f-3f9e38f88056,2023-11-29 13:16:55.523427-05:00,2023-11-29 13:27:11.089638-05:00,14,15,1425.575129,885,540.5751287,1213.303485,675,538.303485,30,20,10,212,191,21,66,59,7,6.48139245,0.344398371,2.315876186,0.107218361,2,0,2,0,1,1,0,662,123,133,47,134,20,0,14,5,46,87,36,16,0.180944878,0.237066127,4.48561804,0.393475552,1.885726929,4.290237427,4.497070313,4.725341797,6.008483887,0.173518608,0.083095076,0,0.118377686,0.174224854,0.225616455,1.230255127,0.920401516,14.61459579,0.001491737,0.200460541,0.386650857,0.737001815,2329.712803,50.16722992,86.18810017,120.9677294,37.05730749,6.48068912
SBTBT,mammal_thylacine,block_03,11/29/2023,9dad9043-4b16-3913-ef6c-b4b80700c54d,2023-11-29 13:32:35.035246-05:00,2023-11-29 13:42:51.126542-05:00,18,7,1494.704477,675,819.704477,703.9478699,570,133.9478699,24,11,13,162,142,20,58,45,13,5.087873043,0.262948042,2.426108739,0.094141892,6,0,6,2,0,2,0,695,127,144,57,133,37,0,21,2,37,81,38,15,0.384221905,0.501983685,4.411579749,0.353283965,2.05682373,4.225250244,4.425750732,4.632545471,7.048355103,0.205335048,0.075385336,6.10E-05,0.158714294,0.206359863,0.252151489,1.056137085,0.41595995,0.703590376,0.000340019,0.159501305,0.276271191,0.4620828,18.93471714,58.36575215,93.67090735,135.1351334,26.09854732,6.681559911
SNMVN,reptile_gila,baseline,,,,,,,,,,,,,,,,,,,,,,,,,,,,,,,,,,,,,,,,,,,,,,0.27133818,0.256596661,4.375988467,0.375277703,2.133590698,4.193576813,4.464107513,4.636470795,5.360748291,0.157815601,0.134600223,0,0.057754517,0.120803833,0.237350464,1.704208374,0.857967158,2.337193585,0.001450429,0.174470048,0.309772975,0.555648162,97.7731992,79.36504993,92.25617882,105.6338326,15.48926795,4.281982535
SNMVN,reptile_gila,block_01,12/5/2023,fe7e9085-4408-f046-181c-7d8bba37b199,2023-12-05 15:34:21.887765-05:00,2023-12-05 15:45:10.826722-05:00,20,4,1110,1110,0,372.073125,150,222.073125,29,29,0,218,218,0,74,74,0,5.038994754,0.335932984,1.710484458,0.114032297,17,0,17,2,0,2,0,529,94,135,56,125,28,0,0,0,7,38,42,0,0.131266898,0.127636153,4.384845417,0.492125843,1.727981567,4.227775574,4.495033264,4.734027863,5.275314331,0.234238683,0.115416178,0,0.155525208,0.232025147,0.311309815,1.88671875,0.913648852,2.469441248,0.003471376,0.219146794,0.368727198,0.609043104,96.6070968,71.42857873,100.0572465,131.5789215,19.53775818,4.431842623
SNMVN,reptile_gila,block_02,12/5/2023,f6d2667c-495f-002e-285c-1a83782872c5,2023-12-05 15:51:48.409959-05:00,2023-12-05 16:05:05.932582-05:00,17,9,1284.85771,990,294.85771,815.94908,75,740.94908,31,27,4,243,234,9,69,66,3,5.09628073,0.304693551,1.611061145,0.086517922,9,3,12,1,4,5,0,680,92,168,35,218,30,0,2,8,20,55,51,0,0.144721812,0.138422255,4.297744948,0.343723096,1.89982605,4.149860382,4.343307495,4.532691956,5.122047424,0.153533616,0.098567259,4.58E-05,0.08052063,0.1456604,0.213882446,1.798736572,0.991631684,2.785550625,0.0024698,0.233744788,0.391798874,0.643847082,116.6516698,72.46376211,87.64401656,102.7397485,23.03023024,4.544438113
SNMVN,reptile_gila,block_03,12/5/2023,ea201d76-41c0-750b-896e-2e8dbb16594f,2023-12-05 16:14:14.258391-05:00,2023-12-05 16:24:29.560367-05:00,17,7,1238.568187,780,458.568187,675.265182,0,675.265182,25,16,9,161,147,14,57,52,5,4.953067957,0.261660138,2.01294362,0.09263744,11,4,15,0,3,3,0,640,129,120,51,183,19,0,4,12,24,41,57,0,0.12017569,0.113295612,4.224711704,0.31027502,1.917907715,4.042060852,4.244468689,4.447250366,5.17401123,0.087677211,0.089015437,0,0.031356812,0.06803894,0.118560791,2.210144043,1.008258091,2.811953664,0,0.235834124,0.393474975,0.641747587,55.9934189,69.76743103,85.8811499,102.7397485,20.00116969,4.630317008
SPKZR,mammal_panda,baseline,,,,,,,,,,,,,,,,,,,,,,,,,,,,,,,,,,,,,,,,,,,,,,0.237344583,0.224527693,3.475163248,0.315271561,1.085464478,3.261405945,3.423721313,3.66708374,4.725723267,0.055983042,0.064851948,0,0.019191742,0.03968811,0.072467804,1.145904541,0.552939454,1.476611211,0,0.110088679,0.192056011,0.344484747,69.06437144,63.82976716,81.09024987,99.33773329,31.10294213,9.729369182
SPKZR,mammal_panda,block_01,12/5/2023,fe7e9085-4408-f046-181c-7d8bba37b199,2023-12-05 15:34:21.887765-05:00,2023-12-05 15:45:10.826722-05:00,6,23,557.460923,330,227.460923,1479.336123,1155,324.336123,24,20,4,167,157,10,26,22,4,4.445570157,0.257343157,0.859034455,0.040065402,4,1,5,16,2,18,0,270,87,11,2,2,2,13,0,0,50,74,28,0,0.118075302,0.122299572,3.899658137,0.518150067,1.478591919,3.501838684,3.930885315,4.275489807,5.347518921,0.09055015,0.074280135,0,0.034759521,0.074707031,0.128585815,2.110351563,0.678061306,1.758321464,0,0.143614013,0.24604563,0.433306317,138.421896,63.2911423,82.81104419,103.4482469,39.26305997,9.843147609
SPKZR,mammal_panda,block_02,12/5/2023,f6d2667c-495f-002e-285c-1a83782872c5,2023-12-05 15:51:48.409959-05:00,2023-12-05 16:05:05.932582-05:00,18,30,1674.835468,225,1449.835468,2202.185695,1425,777.185695,35,17,18,149,117,32,35,15,20,4.782682226,0.186828556,2.100047597,0.043885902,4,7,11,18,4,22,0,352,85,7,3,0,2,37,0,0,68,116,30,1,0.06794003,0.071794003,4.017342088,0.405309558,1.537704468,3.765785217,4.062057495,4.303527832,5.57535553,0.086156899,0.068518689,0,0.035701752,0.07244873,0.12046814,1.424804688,0.592221868,1.525853433,0.000581336,0.13467665,0.230747561,0.393917969,53.92744115,65.50219132,81.17694197,97.40264505,35.81375386,9.737856355
SPKZR,mammal_panda,block_03,12/5/2023,ea201d76-41c0-750b-896e-2e8dbb16594f,2023-12-05 16:14:14.258391-05:00,2023-12-05 16:24:29.560367-05:00,12,23,1292.801271,45,1247.801271,1674.683821,1275,399.683821,16,4,12,48,27,21,17,3,14,3.282689845,0.078010476,2.101084218,0.02762871,0,6,6,14,2,16,0,295,65,3,0,0,0,54,0,0,44,116,13,0,0.10346767,0.10891903,3.997866234,0.414839957,1.517929077,3.785369873,4.062889099,4.277210236,5.467819214,0.102807028,0.072055657,0,0.051010132,0.094360352,0.14251709,1.552459717,0.579290376,1.51407382,0.001221095,0.128600829,0.218245718,0.378065655,90.90600964,64.65517427,80.53365673,96.15387172,38.74535176,9.812839787
SRKLP,reptile_komodo,baseline,,,,,,,,,,,,,,,,,,,,,,,,,,,,,,,,,,,,,,,,,,,,,,0.265657825,0.278582873,4.316991996,0.428021178,1.409545898,4.06637764,4.368980408,4.626314163,5.402511597,0.075561464,0.078668579,0,0.027019501,0.054641724,0.093540192,1.441864014,0.708473292,1.89755931,0,0.155702968,0.283324764,0.505405396,61.47721011,61.22447371,76.49428149,94.33959944,29.34289663,10.28110382
SRKLP,reptile_komodo,block_01,12/5/2023,fe7e9085-4408-f046-181c-7d8bba37b199,2023-12-05 15:34:21.887765-05:00,2023-12-05 15:45:10.826722-05:00,19,5,1438.92414,765,673.92414,405.352268,210,195.352268,23,17,6,169,157,12,59,51,8,4.758734005,0.260425111,2.217348989,0.090917642,9,3,12,3,1,4,0,566,77,127,23,148,22,1,28,20,24,39,54,0,0.095973966,0.09511855,4.092966534,0.44626531,1.356399536,3.848470688,4.164020538,4.4021492,5.422271729,0.070779218,0.069728073,0,0.025390625,0.05519104,0.098888397,1.420883179,0.854547362,1.876288822,0.003521372,0.219819436,0.380573336,0.641715917,84.81326281,55.14705583,75.80720206,98.03921752,40.11422773,6.305429306
SRKLP,reptile_komodo,block_02,12/5/2023,f6d2667c-495f-002e-285c-1a83782872c5,2023-12-05 15:51:48.409959-05:00,2023-12-05 16:05:05.932582-05:00,34,10,2473.784981,1500,973.784981,931.428408,150,781.428408,33,24,9,293,280,13,110,100,10,6.691678652,0.367387697,3.10183675,0.137927122,22,4,26,3,4,7,0,870,148,106,109,203,27,0,67,35,26,71,75,0,0.101750095,0.104840442,3.958959868,0.349589867,1.447570801,3.781143188,3.979637146,4.18428421,6.191345215,0.054942672,0.064862416,0,0.019668579,0.041778564,0.0730896,1.686035156,0.851238298,10.32451636,0.000833944,0.204507663,0.353068523,0.59744191,2346.093872,56.81818213,71.64957662,87.20933714,40.19808058,7.209956249
SRKLP,reptile_komodo,block_03,12/5/2023,ea201d76-41c0-750b-896e-2e8dbb16594f,2023-12-05 16:14:14.258391-05:00,2023-12-05 16:24:29.560367-05:00,19,6,1323.443423,1110,213.443423,652.678069,45,607.678069,29,22,7,243,233,10,78,74,4,6.440093849,0.394928035,2.150884402,0.126767023,12,1,13,0,3,3,0,557,85,91,68,144,22,0,21,3,30,39,49,0,0.099052007,0.100491716,3.966759049,0.290987168,1.21836853,3.784725189,3.95135498,4.160491943,5.025398254,0.055496507,0.053900543,0,0.021682739,0.04524231,0.076965332,1.539474487,0.773486605,2.2219602,0.00249299,0.206743054,0.355484614,0.599324431,280.444957,57.25191611,74.62695572,99.33769408,39.42113177,8.840473511
STWXJ,mammal_thylacine,baseline,,,,,,,,,,,,,,,,,,,,,,,,,,,,,,,,,,,,,,,,,,,,,,0.068946334,0.068983422,3.755058414,0.386240478,1.435348511,3.48853302,3.791175842,3.986831665,5.074989319,0.090965905,0.05321933,3.05E-05,0.058944702,0.092727661,0.120162964,1.811584473,0.447770361,1.129030175,0.00129256,0.129854154,0.21986507,0.354807946,53.69215138,60.48386469,79.85195164,96.15383499,55.7076324,6.497979545
STWXJ,mammal_thylacine,block_01,12/5/2023,fe7e9085-4408-f046-181c-7d8bba37b199,2023-12-05 15:34:21.887765-05:00,2023-12-05 15:45:10.826722-05:00,3,16,219.96447,30,189.96447,1069.588017,720,349.588017,15,9,6,69,52,17,5,2,3,3.040973083,0.106327412,0.338960187,0.007704885,1,0,1,10,1,11,0,243,94,0,6,0,0,7,0,0,25,88,23,0,0.037882439,0.037265524,4.093790099,0.478207938,1.753662109,3.793048859,4.164295197,4.439575195,5.36807251,0.103146322,0.071115965,0,0.045349121,0.093826294,0.150863648,2.090682983,0.839860362,1.973537354,0.000761977,0.180008594,0.314807154,0.57305582,50.1432332,62.49999752,83.47462239,105.6339213,65.65371838,6.601964946
STWXJ,mammal_thylacine,block_02,12/5/2023,f6d2667c-495f-002e-285c-1a83782872c5,2023-12-05 15:51:48.409959-05:00,2023-12-05 16:05:05.932582-05:00,1,22,72.54202,0,72.54202,1556.456996,1065,491.456996,17,9,8,112,92,20,1,0,1,3.188888921,0.140434888,0.0909592,0.001253883,0,1,1,13,3,16,0,296,101,5,14,4,0,14,0,0,27,114,16,0,0.06122768,0.058816753,3.961823614,0.40407456,1.6849823,3.708881378,3.977996826,4.235385895,5.827728271,0.137975007,0.070837151,1.53E-05,0.08795166,0.136672974,0.184234619,1.707855225,0.883188973,2.180119454,0.000895635,0.1711144,0.301696808,0.562418474,56.0700715,62.49999752,83.23900314,103.4482895,68.88089728,6.853802635
STWXJ,mammal_thylacine,block_03,12/5/2023,ea201d76-41c0-750b-896e-2e8dbb16594f,2023-12-05 16:14:14.258391-05:00,2023-12-05 16:24:29.560367-05:00,0,13,35.14198,0,35.14198,887.327789,615,272.327789,12,8,4,25,17,8,1,0,1,1.219626313,0.040630456,0.057113387,0.001625218,0,0,0,9,3,12,0,124,49,4,3,0,0,7,0,0,14,39,8,0,0.055204222,0.053579606,3.810339597,0.407763663,1.435928345,3.564243317,3.859817505,4.082248688,5.144294739,0.127166784,0.078671634,1.53E-05,0.070732117,0.117156982,0.171478272,2.052200317,0.830501534,1.886921,0.001230644,0.17445691,0.309862,0.577910087,42.11329014,53.76344389,78.70704784,104.1666712,88.31221784,6.755927554
SVTZM,mammal_panda,baseline,,,,,,,,,,,,,,,,,,,,,,,,,,,,,,,,,,,,,,,,,,,,,,0.132394742,0.137857524,3.819877477,0.287040547,1.569900513,3.639671326,3.791969299,3.957241058,5.335510254,0.166212673,0.067813965,3.05E-05,0.128700256,0.165481567,0.202949524,1.508621216,0.883966254,2.22114721,0.001460103,0.242647082,0.42800431,0.731644098,60.24219946,73.17071639,86.72855359,100.6711483,28.97980629,8.550928317
SVTZM,mammal_panda,block_01,11/29/2023,b8944796-41be-f0ad-8f57-35adbb4944c5,2023-11-29 12:52:05.310171-05:00,2023-11-29 13:02:20.369341-05:00,1,5,203.794878,0,203.794878,608.886705,360,248.886705,7,0,7,10,0,10,3,0,3,1.244180458,0.016258598,0.331341907,0.00487758,0,0,0,2,0,2,0,166,65,8,3,4,3,6,0,0,7,34,24,1,0.165242046,0.199808198,4.415884442,0.473380583,1.511444092,4.140144348,4.481964111,4.755371094,5.624580383,0.159391877,0.077116409,1.53E-05,0.108398438,0.159240723,0.208213806,1.54548645,1.02126066,2.603882535,0.001741966,0.251134888,0.451335054,0.839085151,118.3224036,77.72019977,93.69982286,111.111168,24.5886875,8.408610165
SVTZM,mammal_panda,block_02,11/29/2023,cd9f5b3e-459d-c4b2-e21f-3f9e38f88056,2023-11-29 13:16:55.523427-05:00,2023-11-29 13:27:11.089638-05:00,0,9,0,0,0,603.455428,345,258.455428,9,5,4,46,31,15,0,0,0,2.777096042,0.074727948,0,0,0,0,0,0,1,1,0,216,81,5,3,0,6,8,0,0,21,48,28,0,0.186736575,0.233141277,4.485468311,0.413931708,1.587997437,4.227083206,4.505222321,4.764846802,5.782524109,0.152459915,0.081189503,4.58E-05,0.095397949,0.151596069,0.204940796,1.514907837,1.090904017,3.064197022,0,0.239714034,0.436124432,0.822662475,163.8182107,75.00000447,94.62643912,117.1875354,27.15155255,8.34296149
